time,position,velocity,torque,position_ref,velocity_ref
9.5367431640625e-07,-0.017449297717352152,0.03265430685893023,-0.16021972991531186,0.0,0.0
0.003134489059448242,-0.017065796668619626,0.4721141374837856,1.49507896543831,0.0,0.0
0.00635838508605957,-0.015148291424953442,0.6485084306095992,0.9219501029983945,0.0,0.0
0.009416341781616211,-0.01361428723002156,0.5575646601052853,0.6948958571755526,0.0,0.0
0.012316226959228516,-0.011313280937624626,0.9176775768673231,0.5319295033188354,0.0,0.0
0.015122413635253906,-0.009012274645225915,0.7473868925001916,0.4037537193865859,0.0,0.0
0.0182192325592041,-0.006711268352827204,0.8187991149767306,0.12176699473563701,0.0,0.0
0.02126312255859375,-0.00441026206043027,0.7278553444724203,-0.00457770656900891,0.0,0.0
0.024631261825561523,-0.0024927568167640857,0.4519722285801464,-0.18219272144655463,0.0,0.0
0.027596473693847656,-0.0013422536705647303,0.4507515068284107,-0.21515220874341878,0.0,0.0
0.030659914016723633,-0.0005752515730996777,0.13580529488059767,-0.32867933165483976,0.0,0.0
0.033747196197509766,-0.00019175052436715134,0.054627298390172996,-0.11810482948042988,0.0,0.0
0.03630661964416504,-0.00019175052436715134,0.06439307240405867,0.18585488670176176,0.0,0.0
0.03928112983703613,-0.00019175052436715134,-0.033875028610665936,0.35431448844128965,0.0,0.0
0.04198884963989258,-0.0005752515730996777,-0.10162508583199781,0.3323414969100469,0.0,0.0
0.04506874084472656,-0.000958752621832204,0.011902037079423167,0.48798352025634983,0.0,0.0
0.04830431938171387,-0.000958752621832204,-0.04974441138323016,0.22613870450904017,0.0,0.0
0.051297903060913086,-0.000958752621832204,0.044251163500419466,0.3121995880064077,0.0,0.0
0.0540010929107666,-0.000958752621832204,-0.03204394598306237,0.20233463035019383,0.0,0.0
0.05704998970031738,-0.000958752621832204,-0.06500343327992653,0.23895628290226512,0.0,0.0
0.060103654861450195,-0.0005752515730996777,0.022278171969176697,0.16571297779812255,0.0,0.0
0.06296944618225098,-0.000958752621832204,-0.01373311970702673,0.2847333485923542,0.0,0.0
0.06610298156738281,-0.0005752515730996777,-0.16998550392919753,0.24078736552986868,0.0,0.0
0.06859445571899414,-0.000958752621832204,0.06744487678339794,0.235294117647058,0.0,0.0
0.07126879692077637,-0.000958752621832204,0.12237735561150487,0.3213550011444255,0.0,0.0
0.07393360137939453,-0.000958752621832204,0.11444266422522276,0.24078736552986868,0.0,0.0
0.07666468620300293,-0.000958752621832204,-0.08880750743877286,0.264591439688715,0.0,0.0
0.07955503463745117,-0.0005752515730996777,0.09796292057679068,0.2792401007095435,0.0,0.0
0.08256745338439941,-0.0005752515730996777,0.10223544670786566,0.193179217212176,0.0,0.0
0.08521366119384766,-0.000958752621832204,-0.013122758831158876,0.20050354772259027,0.0,0.0
0.08827638626098633,-0.0005752515730996777,-0.00457770656900891,0.1986724650949867,0.0,0.0
0.09141016006469727,-0.0005752515730996777,0.025940337224383825,0.193179217212176,0.0,0.0
0.09433817863464355,-0.000958752621832204,-0.11139085984588348,0.32318608377202906,0.0,0.0
0.09669327735900879,-0.0005752515730996777,-0.03265430685893023,0.3561455710688932,0.0,0.0
0.09928202629089355,-0.000958752621832204,0.12237735561150487,0.19501029983977958,0.0,0.0
0.10198378562927246,-0.0005752515730996777,-0.09857328145265853,0.19684138246738314,0.0,0.0
0.10473990440368652,-0.000958752621832204,0.09674219882505497,0.2755779354543364,0.0,0.0
0.10732412338256836,-0.0005752515730996777,0.18951705195696888,0.3891050583657574,0.0,0.0
0.1099998950958252,-0.000958752621832204,-0.007629510948348184,0.26825360494392214,0.0,0.0
0.11284637451171875,-0.0005752515730996777,0.2188143739986259,0.2590981918059043,0.0,0.0
0.1159820556640625,-0.000958752621832204,0.006408789196612474,0.2865644312199578,0.0,0.0
0.11862635612487793,-0.0005752515730996777,0.08209353780422646,0.2755779354543364,0.0,0.0
0.1215970516204834,-0.000958752621832204,-0.022278171969176697,0.25177386129549006,0.0,0.0
0.12466907501220703,-0.000958752621832204,0.18341344319829034,0.3176928358892184,0.0,0.0
0.12770533561706543,-0.000958752621832204,-0.0289921416037231,0.29938200961318273,0.0,0.0
0.13045716285705566,-0.000958752621832204,-0.07171740291447293,0.22796978713664373,0.0,0.0
0.1326444149017334,-0.0005752515730996777,0.06073090714885154,0.2920576791027685,0.0,0.0
0.13518524169921875,-0.0005752515730996777,0.03265430685893023,0.2096589608606081,0.0,0.0
0.1378645896911621,-0.0005752515730996777,0.07904173342488718,0.1583886472877083,0.0,0.0
0.14026665687561035,-0.0005752515730996777,0.01739528496223386,0.336003662165254,0.0,0.0
0.14295411109924316,-0.000958752621832204,-0.07598992904554791,0.1986724650949867,0.0,0.0
0.14550447463989258,-0.0005752515730996777,0.01495384145876244,0.2865644312199578,0.0,0.0
0.14820623397827148,-0.0005752515730996777,-0.11078049897001563,0.1474021515220869,0.0,0.0
0.15102338790893555,-0.0005752515730996777,0.07049668116273722,0.12359807736324058,0.0,0.0
0.15387392044067383,-0.0005752515730996777,0.045471885252155175,0.19684138246738314,0.0,0.0
0.15657448768615723,-0.0005752515730996777,0.12176699473563701,0.14923323414969047,0.0,0.0
0.15973615646362305,-0.0005752515730996777,-0.12481879911497629,0.3213550011444255,0.0,0.0
0.1626887321472168,-0.0005752515730996777,0.0814831769283586,0.3121995880064077,0.0,0.0
0.16576719284057617,-0.000958752621832204,-0.1705958648050654,0.11810482948042988,0.0,0.0
0.1687602996826172,-0.0005752515730996777,0.000915541313801782,0.20782787823300453,0.0,0.0
0.1710348129272461,-0.0005752515730996777,0.05889982452124798,0.2755779354543364,0.0,0.0
0.17337751388549805,-0.0005752515730996777,0.18341344319829034,0.3103685053788041,0.0,0.0
0.17624306678771973,-0.000958752621832204,-0.07110704203860507,0.21149004348821165,0.0,0.0
0.17895102500915527,-0.0005752515730996777,0.1797512779430832,0.23712520027466155,0.0,0.0
0.18159794807434082,-0.0005752515730996777,0.05218585488670158,0.2554360265506972,0.0,0.0
0.18435144424438477,-0.0005752515730996777,-0.1382467383840691,0.17486839093614037,0.0,0.0
0.18709611892700195,-0.0005752515730996777,-0.14557106889448335,0.21698329137102235,0.0,0.0
0.18988847732543945,-0.0005752515730996777,0.09246967269397999,0.235294117647058,0.0,0.0
0.1925668716430664,-0.0005752515730996777,0.011291676203555312,0.2810711833371471,0.0,0.0
0.19486284255981445,-0.0005752515730996777,-0.14557106889448335,0.18036163881895106,0.0,0.0
0.1976766586303711,-0.0005752515730996777,0.2096589608606081,0.163881895170519,0.0,0.0
0.20043659210205078,-0.0005752515730996777,-0.03814755474174092,0.18036163881895106,0.0,0.0
0.20315098762512207,-0.0005752515730996777,-0.016784924086366004,0.08514534218356573,0.0,0.0
0.20595955848693848,-0.0005752515730996777,0.021667811093308842,0.34515907530327183,0.0,0.0
0.2087404727935791,-0.0005752515730996777,0.28839551384756135,0.17669947356374394,0.0,0.0
0.2115342617034912,-0.0005752515730996777,0.10223544670786566,0.1840238040741582,0.0,0.0
0.2142806053161621,-0.0005752515730996777,-0.07721065079728362,0.22247653925383304,0.0,0.0
0.21703004837036133,-0.0005752515730996777,0.0869764248111693,0.20050354772259027,0.0,0.0
0.21985507011413574,-0.0005752515730996777,0.05767910276951227,0.1986724650949867,0.0,0.0
0.22211742401123047,-0.0005752515730996777,0.08514534218356573,0.19501029983977958,0.0,0.0
0.22417926788330078,-0.0005752515730996777,-0.021057450217440987,0.1840238040741582,0.0,0.0
0.22622990608215332,-0.0005752515730996777,0.06195162890058725,0.21332112611581522,0.0,0.0
0.22864794731140137,-0.0005752515730996777,-0.07843137254901933,0.18951705195696888,0.0,0.0
0.23112058639526367,-0.0005752515730996777,0.038757915617608774,0.16021972991531186,0.0,0.0
0.2331845760345459,-0.0005752515730996777,-0.009460593575951748,0.055848020141908705,0.0,0.0
0.23588919639587402,-0.0005752515730996777,0.047913328755626594,0.12176699473563701,0.0,0.0
0.23863983154296875,-0.0005752515730996777,0.18829633020523318,0.23895628290226512,0.0,0.0
0.24124455451965332,-0.0005752515730996777,0.08941786831464071,0.24078736552986868,0.0,0.0
0.24399971961975098,-0.0005752515730996777,0.14190890363927622,0.15655756466010473,0.0,0.0
0.24669957160949707,-0.0005752515730996777,-0.01373311970702673,0.26825360494392214,0.0,0.0
0.24938297271728516,-0.0005752515730996777,-0.24933241779201865,0.09979400320439424,0.0,0.0
0.2521026134490967,-0.0005752515730996777,0.13458457312886196,0.16937514305332968,0.0,0.0
0.2549629211425781,-0.0005752515730996777,-0.06988632028686936,0.055848020141908705,0.0,0.0
0.25810718536376953,-0.0005752515730996777,0.16144045166704757,0.20782787823300453,0.0,0.0
0.26209139823913574,-0.0005752515730996777,0.013122758831158876,0.2298008697642473,0.0,0.0
0.2650187015533447,-0.000958752621832204,-0.1071183337148085,0.1840238040741582,0.0,0.0
0.2679429054260254,-0.0005752515730996777,0.03997863736934448,0.1840238040741582,0.0,0.0
0.2720041275024414,-0.0005752515730996777,-0.2029449912260617,0.2664225223163186,0.0,0.0
0.27663302421569824,-0.000958752621832204,-0.22125581750209733,0.13641565575646553,0.0,0.0
0.28050780296325684,-0.0005752515730996777,0.0747692072938122,0.21149004348821165,0.0,0.0
0.2851903438568115,-0.0005752515730996777,0.19562066071564743,0.11261158159761919,0.0,0.0
0.28943371772766113,-0.000958752621832204,-0.2175936522468902,0.24628061341267937,0.0,0.0
0.29293036460876465,-0.0005752515730996777,-0.1315327687495227,0.3012130922407863,0.0,0.0
0.2962226867675781,-0.0005752515730996777,0.22674906538490802,0.05951018539711583,0.0,0.0
0.29918432235717773,-0.0005752515730996777,-0.038757915617608774,0.22064545662622947,0.0,0.0
0.302109956741333,-0.0005752515730996777,-0.05035477225909801,0.13092240787365483,0.0,0.0
0.3049616813659668,-0.0005752515730996777,-0.0021362630655374915,0.3012130922407863,0.0,0.0
0.30790090560913086,-0.0005752515730996777,0.12298771648737272,0.13641565575646553,0.0,0.0
0.3105788230895996,-0.0005752515730996777,-0.06317235065232296,0.18219272144655463,0.0,0.0
0.3133537769317627,-0.0005752515730996777,-0.07660028992141577,0.1272602426184477,0.0,0.0
0.31606483459472656,-0.0005752515730996777,-0.18829633020523318,0.2096589608606081,0.0,0.0
0.3191993236541748,-0.000958752621832204,-0.17486839093614037,0.24811169604028294,0.0,0.0
0.32204699516296387,-0.0005752515730996777,-0.010681315327687457,0.3103685053788041,0.0,0.0
0.3249475955963135,-0.0005752515730996777,-0.05096513313496587,0.235294117647058,0.0,0.0
0.327556848526001,-0.0005752515730996777,-0.06256198977645511,0.019226367589837423,0.0,0.0
0.3308854103088379,-0.0005752515730996777,-0.22796978713664373,0.1474021515220869,0.0,0.0
0.33426356315612793,-0.0005752515730996777,0.08636606393530144,0.1327534905012584,0.0,0.0
0.33841896057128906,-0.0005752515730996777,0.021057450217440987,0.22796978713664373,0.0,0.0
0.34127092361450195,-0.000958752621832204,0.06927595941100151,0.16571297779812255,0.0,0.0
0.34420228004455566,-0.0005752515730996777,-0.00457770656900891,0.1840238040741582,0.0,0.0
0.3482213020324707,-0.0005752515730996777,-0.2163729304951545,0.12909132524605127,0.0,0.0
0.3517589569091797,-0.0005752515730996777,-0.1004043640802621,0.2096589608606081,0.0,0.0
0.3546872138977051,-0.0005752515730996777,0.09735255970092282,0.11261158159761919,0.0,0.0
0.35865092277526855,-0.0005752515730996777,-0.029602502479590953,0.25177386129549006,0.0,0.0
0.3612792491912842,-0.0005752515730996777,-0.163881895170519,0.1840238040741582,0.0,0.0
0.3637113571166992,-0.0005752515730996777,-0.007629510948348184,0.14007782101167265,0.0,0.0
0.36668848991394043,-0.0005752515730996777,-0.047913328755626594,0.13458457312886196,0.0,0.0
0.37018537521362305,-0.0005752515730996777,0.023498893720912406,0.09063859006637642,0.0,0.0
0.373197078704834,-0.000958752621832204,-0.22186617837796518,0.06683451590753009,0.0,0.0
0.3755655288696289,-0.0005752515730996777,-0.17608911268787608,0.037537193865873064,0.0,0.0
0.37893247604370117,-0.0005752515730996777,0.008850232700083893,0.04486152437628732,0.0,0.0
0.3820819854736328,-0.0005752515730996777,-0.07232776379034078,0.1986724650949867,0.0,0.0
0.3849630355834961,-0.0005752515730996777,-0.15045395590142618,0.18219272144655463,0.0,0.0
0.3873317241668701,-0.0005752515730996777,-0.13031204699778698,0.193179217212176,0.0,0.0
0.3910794258117676,-0.0005752515730996777,0.000915541313801782,0.22796978713664373,0.0,0.0
0.3942070007324219,-0.0005752515730996777,0.10223544670786566,0.18219272144655463,0.0,0.0
0.39663100242614746,-0.0005752515730996777,0.08880750743877286,0.23346303501945442,0.0,0.0
0.3997373580932617,-0.0005752515730996777,-0.0289921416037231,0.2810711833371471,0.0,0.0
0.4031188488006592,-0.0005752515730996777,0.2053864347295331,0.18036163881895106,0.0,0.0
0.4061448574066162,-0.0005752515730996777,-0.10345616845960137,0.28839551384756135,0.0,0.0
0.4085397720336914,-0.0005752515730996777,0.22125581750209733,0.23346303501945442,0.0,0.0
0.4128742218017578,-0.0005752515730996777,-0.03143358510719452,0.20599679560540096,0.0,0.0
0.4156043529510498,-0.0005752515730996777,-0.007629510948348184,0.264591439688715,0.0,0.0
0.4181513786315918,-0.0005752515730996777,-0.06073090714885154,0.18768596932936532,0.0,0.0
0.4205765724182129,-0.0005752515730996777,0.016784924086366004,0.23163195239185086,0.0,0.0
0.4245138168334961,-0.0005752515730996777,-0.12115663385976916,0.1986724650949867,0.0,0.0
0.4273402690887451,-0.0005752515730996777,-0.028381780727855244,0.1071183337148085,0.0,0.0
0.4296841621398926,-0.0005752515730996777,-0.05279621576256943,0.10894941634241206,0.0,0.0
0.4323861598968506,-0.0005752515730996777,0.03326466773479808,0.055848020141908705,0.0,0.0
0.43616271018981934,-0.0005752515730996777,0.033875028610665936,0.2609292744335079,0.0,0.0
0.4392232894897461,-0.0005752515730996777,-0.10101472495612995,0.09613183794918712,0.0,0.0
0.44168782234191895,-0.0005752515730996777,-0.03326466773479808,0.2590981918059043,0.0,0.0
0.4458334445953369,-0.0005752515730996777,-0.02288853284504455,0.23163195239185086,0.0,0.0
0.4501926898956299,-0.0005752515730996777,0.20721751735713667,0.2700846875715257,0.0,0.0
0.4541804790496826,-0.0005752515730996777,0.020447089341573133,0.11261158159761919,0.0,0.0
0.4577951431274414,-0.0005752515730996777,0.02288853284504455,0.11078049897001563,0.0,0.0
0.4606935977935791,-0.0005752515730996777,0.021667811093308842,0.14557106889448335,0.0,0.0
0.4627532958984375,-0.0005752515730996777,-0.16266117341878328,0.1583886472877083,0.0,0.0
0.4661874771118164,-0.0005752515730996777,0.0424200808728159,0.17486839093614037,0.0,0.0
0.4705038070678711,-0.0005752515730996777,-0.06439307240405867,0.18219272144655463,0.0,0.0
0.47318053245544434,-0.0005752515730996777,0.16205081254291542,0.1474021515220869,0.0,0.0
0.4756350517272949,-0.0005752515730996777,0.002746623941405346,0.2444495307850758,0.0,0.0
0.4785587787628174,-0.0005752515730996777,0.10528725108720494,0.03204394598306237,0.0,0.0
0.4815850257873535,-0.0005752515730996777,0.08331425955596217,0.14557106889448335,0.0,0.0
0.484189510345459,-0.0005752515730996777,0.14190890363927622,0.12542915999084414,0.0,0.0
0.4866926670074463,-0.0005752515730996777,0.25604638742656505,0.028381780727855244,0.0,0.0
0.49037599563598633,-0.0005752515730996777,0.047913328755626594,-0.05218585488670158,0.0,0.0
0.4933195114135742,-0.0005752515730996777,-0.1474021515220869,0.006408789196612474,0.0,0.0
0.4957127571105957,-0.0005752515730996777,0.014343480582894585,0.0357061112382695,0.0,0.0
0.49811649322509766,-0.0005752515730996777,-0.06256198977645511,0.11993591210803345,0.0,0.0
0.5014228820800781,-0.0005752515730996777,0.029602502479590953,0.14190890363927622,0.0,0.0
0.5064103603363037,-0.0005752515730996777,-0.18158236057068677,0.09063859006637642,0.0,0.0
0.50996994972229,-0.00019175052436715134,0.10589761196307279,-0.00457770656900891,0.0,0.0
0.5139212608337402,-0.0005752515730996777,-0.0802624551766229,0.13092240787365483,0.0,0.0
0.5182638168334961,-0.00019175052436715134,0.06744487678339794,-0.006408789196612474,0.0,0.0
0.5231282711029053,-0.00019175052436715134,0.16266117341878328,-0.12359807736324058,0.0,0.0
0.5267720222473145,-0.00019175052436715134,-0.06561379415579438,-0.011902037079423167,0.0,0.0
0.5298285484313965,-0.00019175052436715134,-0.10589761196307279,-0.006408789196612474,0.0,0.0
0.5334923267364502,-0.00019175052436715134,-0.10650797283894065,-0.03936827649347663,0.0,0.0
0.5361588001251221,-0.00019175052436715134,-0.12176699473563701,0.04486152437628732,0.0,0.0
0.5382580757141113,-0.00019175052436715134,0.12298771648737272,-0.17486839093614037,0.0,0.0
0.5405077934265137,-0.00019175052436715134,0.029602502479590953,-0.15472648203250117,0.0,0.0
0.544503927230835,-0.00019175052436715134,-0.04119935912108019,0.028381780727855244,0.0,0.0
0.5484697818756104,-0.0005752515730996777,-0.1071183337148085,0.002746623941405346,0.0,0.0
0.5511665344238281,-0.00019175052436715134,0.06561379415579438,-0.0613412680247194,0.0,0.0
0.5546443462371826,-0.00019175052436715134,-0.007019150072480329,-0.05951018539711583,0.0,0.0
0.5580639839172363,-0.00019175052436715134,-0.03143358510719452,0.019226367589837423,0.0,0.0
0.5605452060699463,-0.00019175052436715134,-0.12542915999084414,-0.046692607003890885,0.0,0.0
0.5626826286315918,-0.00019175052436715134,-0.17120622568093324,0.03936827649347663,0.0,0.0
0.5663483142852783,-0.00019175052436715134,-0.010070954451819603,-0.07782101167315147,0.0,0.0
0.5697810649871826,-0.00019175052436715134,0.10894941634241206,0.028381780727855244,0.0,0.0
0.5727989673614502,-0.00019175052436715134,-0.2420080872816044,-0.10528725108720494,0.0,0.0
0.5754485130310059,-0.00019175052436715134,0.044251163500419466,-0.008239871824216038,0.0,0.0
0.5781509876251221,-0.00019175052436715134,0.08941786831464071,-0.04119935912108019,0.0,0.0
0.5809385776519775,-0.00019175052436715134,0.14312962539101193,-0.09246967269397999,0.0,0.0
0.5837090015411377,-0.00019175052436715134,-0.021667811093308842,-0.09063859006637642,0.0,0.0
0.5861420631408691,-0.00019175052436715134,-0.07782101167315147,-0.07049668116273722,0.0,0.0
0.5887999534606934,-0.00019175052436715134,0.11871519035629774,-0.006408789196612474,0.0,0.0
0.5914571285247803,-0.00019175052436715134,-0.2499427786678865,0.06500343327992653,0.0,0.0
0.5940253734588623,-0.00019175052436715134,-0.02532997634851597,-0.07598992904554791,0.0,0.0
0.5967209339141846,-0.00019175052436715134,0.17547875181200823,-0.2243076218814366,0.0,0.0
0.5992217063903809,-0.00019175052436715134,0.0424200808728159,-0.07049668116273722,0.0,0.0
0.6019513607025146,-0.00019175052436715134,-0.11139085984588348,-0.01373311970702673,0.0,0.0
0.6047234535217285,-0.00019175052436715134,-0.11322194247348705,-0.05035477225909801,0.0,0.0
0.607154130935669,-0.00019175052436715134,0.1004043640802621,-0.13458457312886196,0.0,0.0
0.6092309951782227,-0.00019175052436715134,0.22735942626077588,0.055848020141908705,0.0,0.0
0.6118826866149902,-0.00019175052436715134,0.07598992904554791,0.055848020141908705,0.0,0.0
0.6146738529205322,-0.00019175052436715134,0.00030518043793392735,-0.05951018539711583,0.0,0.0
0.6175355911254883,-0.0005752515730996777,-0.26947432669565785,-0.1327534905012584,0.0,0.0
0.6215705871582031,-0.00019175052436715134,-0.163881895170519,-0.033875028610665936,0.0,0.0
0.6264352798461914,-0.00019175052436715134,0.1797512779430832,-0.0869764248111693,0.0,0.0
0.6295907497406006,-0.00019175052436715134,-0.037537193865873064,-0.02288853284504455,0.0,0.0
0.6335134506225586,-0.00019175052436715134,0.0814831769283586,-0.1071183337148085,0.0,0.0
0.6383230686187744,-0.00019175052436715134,0.016784924086366004,-0.015564202334630295,0.0,0.0
0.6428260803222656,-0.00019175052436715134,0.09918364232852639,0.00457770656900891,0.0,0.0
0.6460480690002441,-0.00019175052436715134,-0.07904173342488718,-0.06683451590753009,0.0,0.0
0.6495528221130371,-0.0005752515730996777,-0.024719615472648115,-0.07049668116273722,0.0,0.0
0.6536705493927002,-0.00019175052436715134,0.11993591210803345,-0.06500343327992653,0.0,0.0
0.6586892604827881,-0.00019175052436715134,0.04364080262455161,-0.09796292057679068,0.0,0.0
