time,position,velocity,torque,position_ref,velocity_ref
2.384185791015625e-07,-0.02090080715595022,0.04766918440527945,-0.00025940337224383825,-0.0,-0.0
0.0021560192108154297,-0.020517306107215916,0.14435034714274764,0.7955901426718555,-0.0,-0.0
0.004277229309082031,-0.01936680296101656,0.49079118028534197,0.11699092088197105,-0.0,-0.0
0.006367206573486328,-0.01783279876608468,0.6371557183184535,-0.00025940337224383825,-0.0,-0.0
0.008596420288085938,-0.016298794571152797,0.6371557183184535,0.19688715953307323,-0.0,-0.0
0.01082921028137207,-0.015148291424953442,0.6640115968566391,0.12010376134889711,-0.0,-0.0
0.013124942779541016,-0.01361428723002156,0.6102998397802679,0.0806744487678337,-0.0,-0.0
0.015399932861328125,-0.012080283035089678,0.658640421149002,0.15434500648508376,-0.0,-0.0
0.0173952579498291,-0.010929779888890323,0.6438696879529999,0.05888456549935128,-0.0,-0.0
0.01945662498474121,-0.009779276742692744,0.5069047074082533,-0.00025940337224383825,-0.0,-0.0
0.021646499633789062,-0.008628773596493389,0.5525597009231689,0.28300907911802753,-0.0,-0.0
0.02377796173095703,-0.007478270450294033,0.47064927138170276,0.12166018158236014,-0.0,-0.0
0.025999784469604492,-0.006327767304094678,0.4827344167238863,0.5517509727626475,-0.0,-0.0
0.028173208236694336,-0.005177264157895323,0.5364461738002575,0.36238651102464203,-0.0,-0.0
0.030484914779663086,-0.00441026206043027,0.3873960479133274,0.07963683527885834,-0.0,-0.0
0.032671451568603516,-0.003643259962963441,0.37531090257114386,0.0562905317769129,-0.0,-0.0
0.03499889373779297,-0.0028762578654983884,0.34979781795986753,0.47444876783398016,-0.0,-0.0
0.037177324295043945,-0.0024927568167640857,0.3054856183718613,0.08378728923475975,-0.0,-0.0
0.03934526443481445,-0.0021092557680315593,0.23431754024566942,0.3893644617380012,-0.0,-0.0
0.04145979881286621,-0.001725754719299033,0.25983062485694575,0.3504539559014255,-0.0,-0.0
0.043555259704589844,-0.0013422536705647303,0.10943770504310635,-0.00025940337224383825,-0.0,-0.0
0.04575777053833008,-0.0013422536705647303,0.0785534447241929,0.5009079118028517,-0.0,-0.0
0.04799914360046387,-0.000958752621832204,0.13897917143511052,0.005447470817120603,-0.0,-0.0
0.05019974708557129,-0.000958752621832204,0.014099336232547444,0.32866407263294306,-0.0,-0.0
0.052369117736816406,-0.0005752515730996777,0.04229800869764233,0.3893644617380012,-0.0,-0.0
0.054651498794555664,-0.0005752515730996777,-0.0060425726710917615,0.4007782101167301,-0.0,-0.0
0.05700111389160156,-0.0005752515730996777,0.023498893720912406,-0.00025940337224383825,-0.0,-0.0
0.05918002128601074,-0.0005752515730996777,0.012756542305638163,0.30894941634241135,-0.0,-0.0
0.06145310401916504,-0.0005752515730996777,0.016784924086366004,0.23579766536964897,-0.0,-0.0
0.06351232528686523,-0.0005752515730996777,-0.020813305867093845,0.4557717250324238,-0.0,-0.0
0.06573247909545898,-0.0005752515730996777,0.012756542305638163,0.34682230869001174,-0.0,-0.0
0.0678565502166748,-0.000958752621832204,0.015442130159456724,0.38884565499351353,-0.0,-0.0
0.07007884979248047,-0.0005752515730996777,0.0060425726710917615,-0.00025940337224383825,-0.0,-0.0
0.07207584381103516,-0.0005752515730996777,0.04901197833218873,0.5455252918287954,-0.0,-0.0
0.07439017295837402,-0.000958752621832204,-0.03424124513618665,0.40389105058365615,-0.0,-0.0
0.07654881477355957,-0.000958752621832204,0.0006713969634546402,0.39714656290531636,-0.0,-0.0
0.07880520820617676,-0.000958752621832204,-0.0006713969634546402,0.2731517509727617,-0.0,-0.0
0.08103108406066895,-0.000958752621832204,-0.03961242084382377,0.166796368352788,-0.0,-0.0
0.08326172828674316,-0.000958752621832204,0.061097123674372256,-0.00025940337224383825,-0.0,-0.0
0.0854494571685791,-0.000958752621832204,-0.020813305867093845,0.6005188067444891,-0.0,-0.0
0.08759689331054688,-0.000958752621832204,-0.09735255970092282,0.09260700389105025,-0.0,-0.0
0.0897819995880127,-0.000958752621832204,-0.015442130159456724,0.26900129701686026,-0.0,-0.0
0.09187030792236328,-0.000958752621832204,-0.0020141908903639205,0.17042801556420173,-0.0,-0.0
0.09399580955505371,-0.000958752621832204,-0.026184481574730967,0.1512321660181577,-0.0,-0.0
0.09627652168273926,-0.000958752621832204,0.04095521477073305,0.1071335927367052,-0.0,-0.0
0.09873557090759277,-0.000958752621832204,0.10003814755474139,0.1180285343709464,-0.0,-0.0
0.10104250907897949,-0.0005752515730996777,-0.07452506294346506,0.3084306095979237,-0.0,-0.0
0.10318160057067871,-0.000958752621832204,-0.06646829938200938,0.2996108949416332,-0.0,-0.0
0.10520648956298828,-0.000958752621832204,0.10675211718928779,0.22127107652399403,-0.0,-0.0
0.10713052749633789,-0.000958752621832204,-0.0785534447241929,0.14500648508430558,-0.0,-0.0
0.10904216766357422,-0.000958752621832204,-0.008728160524910322,-0.00025940337224383825,-0.0,-0.0
0.11094284057617188,-0.0005752515730996777,-0.012756542305638163,0.2415045395590134,-0.0,-0.0
0.1128532886505127,-0.000958752621832204,-0.018127718013275285,0.2570687418936437,-0.0,-0.0
0.1149134635925293,-0.0005752515730996777,0.07318226901655578,0.11024643320363126,-0.0,-0.0
0.11700606346130371,-0.0005752515730996777,0.019470511940184565,0.2985732814526578,-0.0,-0.0
0.11900639533996582,-0.0005752515730996777,-0.015442130159456724,-0.00025940337224383825,-0.0,-0.0
0.12108182907104492,-0.000958752621832204,-0.03424124513618665,0.2306095979247722,-0.0,-0.0
0.12302637100219727,-0.0005752515730996777,0.024841687647821686,-0.00025940337224383825,-0.0,-0.0
0.1249697208404541,-0.0005752515730996777,0.03155565728236809,0.11647211413748337,-0.0,-0.0
0.1269221305847168,-0.0005752515730996777,-0.010070954451819603,0.08741893644617349,-0.0,-0.0
0.12877607345581055,-0.0005752515730996777,0.0020141908903639205,0.19844357976653626,-0.0,-0.0
0.13073492050170898,-0.0005752515730996777,-0.0060425726710917615,0.30428015564202227,-0.0,-0.0
0.13268089294433594,-0.0005752515730996777,-0.016784924086366004,0.2285343709468215,-0.0,-0.0
0.13462424278259277,-0.0005752515730996777,0.018127718013275285,0.03553826199740584,-0.0,-0.0
0.13662123680114746,-0.0005752515730996777,0.054383154039825854,0.04435797665369634,-0.0,-0.0
0.13878798484802246,-0.000958752621832204,-0.03155565728236809,0.07963683527885834,-0.0,-0.0
0.14080286026000977,-0.000958752621832204,-0.018127718013275285,0.16835278858625102,-0.0,-0.0
0.14288759231567383,-0.0005752515730996777,0.012756542305638163,0.06977950713359249,-0.0,-0.0
0.14488959312438965,-0.0005752515730996777,-0.026184481574730967,0.15849546044098517,-0.0,-0.0
0.1467909812927246,-0.0005752515730996777,0.04901197833218873,0.15849546044098517,-0.0,-0.0
0.14877629280090332,-0.0005752515730996777,0.0006713969634546402,-0.00025940337224383825,-0.0,-0.0
0.15070700645446777,-0.0005752515730996777,-0.024841687647821686,-0.00025940337224383825,-0.0,-0.0
0.15266704559326172,-0.0005752515730996777,-0.011413748378728883,-0.00025940337224383825,-0.0,-0.0
0.15462183952331543,-0.0005752515730996777,0.04632639047837017,-0.05006485084306078,-0.0,-0.0
0.15648269653320312,-0.0005752515730996777,-0.08258182650492074,0.11543450064850802,-0.0,-0.0
0.15848302841186523,-0.0005752515730996777,0.010070954451819603,-0.00025940337224383825,-0.0,-0.0
0.16048431396484375,-0.0005752515730996777,0.019470511940184565,-0.00025940337224383825,-0.0,-0.0
0.16257548332214355,-0.0005752515730996777,-0.014099336232547444,-0.00025940337224383825,-0.0,-0.0
0.16467547416687012,-0.0005752515730996777,0.07318226901655578,-0.047989623865110076,-0.0,-0.0
0.16654467582702637,-0.0005752515730996777,0.027527275501640247,-0.00025940337224383825,-0.0,-0.0
0.16839981079101562,-0.0005752515730996777,-0.030212863355458808,0.1247730220492862,-0.0,-0.0
0.17043256759643555,-0.0005752515730996777,-0.0020141908903639205,-0.00025940337224383825,-0.0,-0.0
0.17239975929260254,-0.0005752515730996777,-0.04498359655146089,0.0018158236057068677,-0.0,-0.0
0.17440271377563477,-0.00019175052436715134,0.07318226901655578,-0.00025940337224383825,-0.0,-0.0
0.17639780044555664,-0.00019175052436715134,0.04364080262455161,-0.00025940337224383825,-0.0,-0.0
0.17840290069580078,-0.00019175052436715134,-0.028870069428549527,0.05784695201037593,-0.0,-0.0
0.1805119514465332,-0.0005752515730996777,0.015442130159456724,0.0651102464332034,-0.0,-0.0
0.1825699806213379,-0.00019175052436715134,-0.026184481574730967,0.015823605706874133,-0.0,-0.0
0.18455719947814941,-0.0005752515730996777,-0.059754329747462975,0.15434500648508376,-0.0,-0.0
0.18654489517211914,-0.0005752515730996777,-0.04364080262455161,-0.00025940337224383825,-0.0,-0.0
0.1885054111480713,-0.0005752515730996777,0.03289845120927737,-0.00025940337224383825,-0.0,-0.0
0.19043493270874023,-0.00019175052436715134,-0.03155565728236809,-0.00025940337224383825,-0.0,-0.0
0.19242024421691895,-0.00019175052436715134,0.020813305867093845,-0.00025940337224383825,-0.0,-0.0
0.19449996948242188,-0.00019175052436715134,-0.012756542305638163,-0.00025940337224383825,-0.0,-0.0
0.19639968872070312,-0.00019175052436715134,-0.03155565728236809,-0.00025940337224383825,-0.0,-0.0
0.19839954376220703,-0.00019175052436715134,0.03424124513618665,-0.00025940337224383825,-0.0,-0.0
0.200453519821167,-0.0005752515730996777,0.019470511940184565,-0.00025940337224383825,-0.0,-0.0
0.2024848461151123,-0.00019175052436715134,0.011413748378728883,-0.00025940337224383825,-0.0,-0.0
0.20459580421447754,-0.0005752515730996777,0.003356984817273201,0.03242542153047978,-0.0,-0.0
0.20670437812805176,-0.0005752515730996777,-0.010070954451819603,-0.00025940337224383825,-0.0,-0.0
0.2086200714111328,-0.00019175052436715134,0.08929579613946714,-0.00025940337224383825,-0.0,-0.0
0.21054315567016602,-0.0005752515730996777,-0.020813305867093845,-0.00025940337224383825,-0.0,-0.0
0.21245765686035156,-0.0005752515730996777,0.008728160524910322,0.027237354085603016,-0.0,-0.0
0.2144007682800293,-0.00019175052436715134,0.03424124513618665,0.06874189364461714,-0.0,-0.0
0.2163982391357422,-0.0005752515730996777,-0.08392462043183002,-0.00025940337224383825,-0.0,-0.0
0.21831107139587402,-0.0005752515730996777,-0.008728160524910322,-0.00025940337224383825,-0.0,-0.0
0.22028183937072754,-0.00019175052436715134,0.0718394750896465,-0.00025940337224383825,-0.0,-0.0
0.22240066528320312,-0.0005752515730996777,-0.023498893720912406,-0.00025940337224383825,-0.0,-0.0
0.22452306747436523,-0.0005752515730996777,-0.018127718013275285,0.13047989623865064,-0.0,-0.0
0.22659993171691895,-0.0005752515730996777,0.04364080262455161,-0.052658884565499164,-0.0,-0.0
0.228682279586792,-0.0005752515730996777,-0.053040360112916574,-0.006485084306095956,-0.0,-0.0
0.2306218147277832,-0.0005752515730996777,0.015442130159456724,-0.00025940337224383825,-0.0,-0.0
0.2325439453125,-0.00019175052436715134,0.028870069428549527,-0.00025940337224383825,-0.0,-0.0
0.23448467254638672,-0.0005752515730996777,-0.015442130159456724,0.09105058365758723,-0.0,-0.0
0.23640012741088867,-0.0005752515730996777,-0.003356984817273201,-0.00025940337224383825,-0.0,-0.0
0.23841357231140137,-0.0005752515730996777,0.03289845120927737,-0.00025940337224383825,-0.0,-0.0
0.2406017780303955,-0.0005752515730996777,-0.058411535820553695,-0.00025940337224383825,-0.0,-0.0
0.24268507957458496,-0.0005752515730996777,0.07452506294346506,-0.00025940337224383825,-0.0,-0.0
0.2450881004333496,-0.0005752515730996777,-0.0006713969634546402,-0.00025940337224383825,-0.0,-0.0
0.2473313808441162,-0.0005752515730996777,0.004699778744182481,-0.00025940337224383825,-0.0,-0.0
0.24965929985046387,-0.0005752515730996777,-0.028870069428549527,0.08119325551232137,-0.0,-0.0
0.2517101764678955,-0.0005752515730996777,0.020813305867093845,-0.00025940337224383825,-0.0,-0.0
0.2540099620819092,-0.0005752515730996777,-0.024841687647821686,-0.00025940337224383825,-0.0,-0.0
0.256209135055542,-0.0005752515730996777,-0.007385366598001042,-0.00025940337224383825,-0.0,-0.0
0.25847458839416504,-0.0005752515730996777,-0.014099336232547444,-0.00025940337224383825,-0.0,-0.0
0.2606785297393799,-0.0005752515730996777,0.057068741893644415,0.11906614785992176,-0.0,-0.0
0.2629115581512451,-0.0005752515730996777,-0.007385366598001042,-0.00025940337224383825,-0.0,-0.0
0.26500725746154785,-0.0005752515730996777,-0.020813305867093845,0.07704280155641996,-0.0,-0.0
0.26715707778930664,-0.0005752515730996777,0.0020141908903639205,-0.02827496757457837,-0.0,-0.0
0.26929354667663574,-0.0005752515730996777,-0.019470511940184565,-0.00025940337224383825,-0.0,-0.0
0.27146315574645996,-0.0005752515730996777,0.03692683299000521,-0.00025940337224383825,-0.0,-0.0
0.27361202239990234,-0.0005752515730996777,0.022156099794003126,-0.00025940337224383825,-0.0,-0.0
0.2756788730621338,-0.0005752515730996777,0.022156099794003126,0.20518806744487605,-0.0,-0.0
0.2778332233428955,-0.0005752515730996777,0.054383154039825854,-0.00025940337224383825,-0.0,-0.0
0.27980685234069824,-0.0005752515730996777,0.008728160524910322,-0.22075226977950635,-0.0,-0.0
0.28198933601379395,-0.0005752515730996777,0.014099336232547444,-0.00025940337224383825,-0.0,-0.0
0.28403711318969727,-0.00019175052436715134,0.053040360112916574,-0.00025940337224383825,-0.0,-0.0
0.2860548496246338,-0.00019175052436715134,-0.011413748378728883,-0.00025940337224383825,-0.0,-0.0
0.28804826736450195,-0.0005752515730996777,-0.030212863355458808,-0.00025940337224383825,-0.0,-0.0
0.29038310050964355,-0.0005752515730996777,-0.0006713969634546402,-0.00025940337224383825,-0.0,-0.0
0.2926039695739746,-0.00019175052436715134,-0.04095521477073305,-0.00025940337224383825,-0.0,-0.0
0.29476475715637207,-0.00019175052436715134,0.0986953536278321,-0.00025940337224383825,-0.0,-0.0
0.29696035385131836,-0.0005752515730996777,-0.0651255054551001,0.06459143968871572,-0.0,-0.0
0.29915356636047363,-0.0005752515730996777,0.055725947966735134,-0.00025940337224383825,-0.0,-0.0
0.3012855052947998,-0.00019175052436715134,-0.003356984817273201,-0.00025940337224383825,-0.0,-0.0
0.3034052848815918,-0.00019175052436715134,0.07989623865110218,-0.00025940337224383825,-0.0,-0.0
0.305513858795166,-0.0005752515730996777,-0.07721065079728362,-0.00025940337224383825,-0.0,-0.0
0.3076775074005127,-0.0005752515730996777,-0.004699778744182481,-0.00025940337224383825,-0.0,-0.0
0.31005215644836426,-0.00019175052436715134,0.053040360112916574,-0.23891050583657503,-0.0,-0.0
0.31233930587768555,-0.00019175052436715134,0.04901197833218873,-0.00025940337224383825,-0.0,-0.0
0.31462788581848145,-0.0005752515730996777,0.05169756618600729,-0.00025940337224383825,-0.0,-0.0
0.3167386054992676,-0.0005752515730996777,0.0020141908903639205,-0.00025940337224383825,-0.0,-0.0
0.3188753128051758,-0.0005752515730996777,0.0020141908903639205,-0.00025940337224383825,-0.0,-0.0
0.3209102153778076,-0.00019175052436715134,0.03289845120927737,-0.00025940337224383825,-0.0,-0.0
0.3230862617492676,-0.0005752515730996777,0.010070954451819603,-0.00025940337224383825,-0.0,-0.0
0.32520556449890137,-0.00019175052436715134,0.07318226901655578,-0.04591439688715937,-0.0,-0.0
0.3272702693939209,-0.00019175052436715134,0.010070954451819603,-0.09260700389105025,-0.0,-0.0
0.32955312728881836,-0.00019175052436715134,0.03289845120927737,-0.14967574578469467,-0.0,-0.0
0.3318600654602051,-0.00019175052436715134,-0.011413748378728883,-0.08430609597924743,-0.0,-0.0
0.3341515064239502,-0.00019175052436715134,0.05035477225909801,-0.00025940337224383825,-0.0,-0.0
0.3363659381866455,-0.00019175052436715134,-0.022156099794003126,-0.00025940337224383825,-0.0,-0.0
0.3384590148925781,-0.00019175052436715134,0.018127718013275285,0.1559014267185468,-0.0,-0.0
0.34062647819519043,-0.00019175052436715134,0.0020141908903639205,-0.3447470817120646,-0.0,-0.0
0.34260106086730957,-0.00019175052436715134,0.062439917601281536,-0.08793774319066117,-0.0,-0.0
0.3447551727294922,-0.00019175052436715134,-0.015442130159456724,-0.00025940337224383825,-0.0,-0.0
0.34700870513916016,-0.00019175052436715134,-0.0651255054551001,-0.00025940337224383825,-0.0,-0.0
0.349210262298584,-0.00019175052436715134,0.04766918440527945,-0.00025940337224383825,-0.0,-0.0
0.35149693489074707,-0.00019175052436715134,-0.04095521477073305,-0.00025940337224383825,-0.0,-0.0
0.3536694049835205,-0.00019175052436715134,0.08123903257801146,-0.12425421530479852,-0.0,-0.0
0.3556249141693115,-0.00019175052436715134,0.023498893720912406,-0.00025940337224383825,-0.0,-0.0
0.3575453758239746,-0.00019175052436715134,0.05169756618600729,-0.00025940337224383825,-0.0,-0.0
0.35940051078796387,-0.00019175052436715134,-0.08123903257801146,-0.00025940337224383825,-0.0,-0.0
0.3613102436065674,-0.00019175052436715134,0.0060425726710917615,-0.00025940337224383825,-0.0,-0.0
0.36330103874206543,-0.00019175052436715134,-0.020813305867093845,-0.054215304798962194,-0.0,-0.0
0.3652348518371582,-0.00019175052436715134,-0.03692683299000521,-0.00025940337224383825,-0.0,-0.0
0.3671541213989258,-0.00019175052436715134,-0.03692683299000521,-0.00025940337224383825,-0.0,-0.0
0.36905837059020996,-0.00019175052436715134,0.011413748378728883,-0.00025940337224383825,-0.0,-0.0
0.37097787857055664,-0.00019175052436715134,0.03961242084382377,-0.00025940337224383825,-0.0,-0.0
0.37302517890930176,0.00019175052436715134,0.03424124513618665,-0.00025940337224383825,-0.0,-0.0
0.3750784397125244,-0.00019175052436715134,0.007385366598001042,0.14863813229571932,-0.0,-0.0
0.37719011306762695,-0.00019175052436715134,-0.03558403906309593,-0.08430609597924743,-0.0,-0.0
0.37933850288391113,-0.00019175052436715134,0.03961242084382377,-0.00025940337224383825,-0.0,-0.0
0.38132238388061523,-0.00019175052436715134,-0.06378271152819082,-0.00025940337224383825,-0.0,-0.0
0.38329529762268066,-0.00019175052436715134,0.0060425726710917615,-0.1818417639429306,-0.0,-0.0
0.3852057456970215,-0.00019175052436715134,0.016784924086366004,-0.00025940337224383825,-0.0,-0.0
0.3871312141418457,-0.00019175052436715134,0.054383154039825854,-0.00025940337224383825,-0.0,-0.0
0.3890559673309326,-0.00019175052436715134,0.010070954451819603,-0.09779507133592702,-0.0,-0.0
0.39092040061950684,-0.00019175052436715134,-0.0718394750896465,-0.0033722438391698972,-0.0,-0.0
0.3929107189178467,-0.00019175052436715134,0.022156099794003126,-0.0562905317769129,-0.0,-0.0
0.3949120044708252,-0.00019175052436715134,-0.015442130159456724,-0.0038910505836575737,-0.0,-0.0
0.39701008796691895,-0.00019175052436715134,-0.018127718013275285,-0.08897535667963652,-0.0,-0.0
0.39902758598327637,-0.00019175052436715134,0.061097123674372256,-0.00025940337224383825,-0.0,-0.0
0.40097618103027344,-0.00019175052436715134,0.08929579613946714,-0.02516212710765231,-0.0,-0.0
0.40294528007507324,-0.00019175052436715134,-0.03961242084382377,-0.00025940337224383825,-0.0,-0.0
0.4050009250640869,-0.00019175052436715134,-0.07318226901655578,-0.00025940337224383825,-0.0,-0.0
0.40694642066955566,-0.00019175052436715134,0.04766918440527945,-0.033463035019455134,-0.0,-0.0
0.4088566303253174,0.00019175052436715134,0.016784924086366004,-0.11906614785992176,-0.0,-0.0
0.4108569622039795,-0.00019175052436715134,0.019470511940184565,-0.278339818417642,-0.0,-0.0
0.4128572940826416,-0.00019175052436715134,0.027527275501640247,-0.00025940337224383825,-0.0,-0.0
0.4149131774902344,-0.00019175052436715134,-0.07049668116273722,-0.00025940337224383825,-0.0,-0.0
0.41707897186279297,0.00019175052436715134,0.07586785687037434,-0.23891050583657503,-0.0,-0.0
0.4191927909851074,0.00019175052436715134,0.016784924086366004,-0.149156939040207,-0.0,-0.0
0.42110347747802734,0.00019175052436715134,-0.022156099794003126,-0.00025940337224383825,-0.0,-0.0
0.42303037643432617,0.00019175052436715134,-0.003356984817273201,-0.13463035019455205,-0.0,-0.0
0.42494773864746094,0.00019175052436715134,0.0020141908903639205,-0.00025940337224383825,-0.0,-0.0
0.42685675621032715,-0.00019175052436715134,-0.03289845120927737,-0.00025940337224383825,-0.0,-0.0
0.42881107330322266,-0.00019175052436715134,0.028870069428549527,-0.0562905317769129,-0.0,-0.0
0.4308793544769287,-0.00019175052436715134,0.014099336232547444,-0.1885862516212704,-0.0,-0.0
