time,position,velocity,torque,position_ref,velocity_ref
7.152557373046875e-07,0.06270242146784888,0.018005645838101714,-0.05035477225909801,0.0,0.0
0.004102945327758789,0.05694990573685388,-2.096894789044022,-4.4010070954451805,0.0,0.0
0.007681846618652344,0.04889638371346017,-2.5693141069657415,-1.7972075989929053,0.0,0.0
0.010583162307739258,0.04237686588499834,-2.2867170214389247,-4.347905699244677,0.0,0.0
0.013617992401123047,0.03547384700780398,-2.045624475471122,-5.21400778210117,0.0,0.0
0.0166168212890625,0.03010483232554151,-1.575646601052874,-5.217669947356377,0.0,0.0
0.01974010467529297,0.025502819740745863,-1.5243762874799707,-5.975738155184253,0.0,0.0
0.02280449867248535,0.02166780925341527,-0.9512474250400551,-7.369192034790572,0.0,0.0
0.025829315185546875,0.018983301912284034,-0.724803540093081,-7.3508812085145365,0.0,0.0
0.028887510299682617,0.0166822956198871,-0.8358892195010306,-8.279240100709544,0.0,0.0
0.031842947006225586,0.015148291424953442,-0.45197222858014996,-7.815976195925842,0.0,0.0
0.03483271598815918,0.01361428723002156,-0.7730220492866415,-8.537422751201653,0.0,0.0
0.037969112396240234,0.013230786181289034,-0.13458457312886196,-8.845044632639052,0.0,0.0
0.040790557861328125,0.012463784083822205,-0.23224231326771871,-8.753490501258874,0.0,0.0
0.043888092041015625,0.012463784083822205,0.2432288090333401,-7.90753032730602,0.0,0.0
0.046525001525878906,0.011696781986357152,-0.21454184786755093,-8.321355001144426,0.0,0.0
0.04927802085876465,0.011313280937624626,-0.07721065079728362,-7.5944151979858106,0.0,0.0
0.052449703216552734,0.010929779888890323,-0.02532997634851597,-7.6401922636759,0.0,0.0
0.05550956726074219,0.010546278840157797,-0.1327534905012584,-7.019455252918291,0.0,0.0
0.05825471878051758,0.009779276742692744,-0.30853742275120055,-6.642252231631957,0.0,0.0
0.06137871742248535,0.009395775693958441,-0.25482566567482934,-5.636987869077593,0.0,0.0
0.06419610977172852,0.008628773596493389,-0.1449607080186155,-5.272602426184484,0.0,0.0
0.06721663475036621,0.008245272547759086,-0.030212863355458808,-4.704966811627379,0.0,0.0
0.06974339485168457,0.00786177149902656,-0.15228503852902975,-4.571297779812312,0.0,0.0
0.07289767265319824,0.007478270450294033,-0.0814831769283586,-4.1574731059739065,0.0,0.0
0.07606029510498047,0.007094769401561507,0.10284580758373352,-4.230716411078049,0.0,0.0
0.07896661758422852,0.006711268352827204,-0.163881895170519,-3.558709086747541,0.0,0.0
0.08193492889404297,0.005944266255362152,-0.1541161211566333,-3.533073929961091,0.0,0.0
0.08479881286621094,0.005560765206629625,-0.159609369039444,-3.0606546120393716,0.0,0.0
0.08789253234863281,0.004793763109162796,-0.15106431677729404,-2.8097962920576762,0.0,0.0
0.09080076217651367,0.00441026206043027,-0.1864652475776296,-2.558937972075988,0.0,0.0
0.09379458427429199,0.004026761011695967,-0.17242694743266895,-2.222018768596932,0.0,0.0
0.09681081771850586,0.003643259962963441,-0.2108796826123438,-2.168917372396429,0.0,0.0
0.09944939613342285,0.0032597589142309147,-0.1004043640802621,-1.8850995651178764,0.0,0.0
0.1017601490020752,0.0028762578654983884,-0.1193255512321656,-1.67635614557107,0.0,0.0
0.10390377044677734,0.0028762578654983884,0.088197146562905,-1.5097276264591457,0.0,0.0
0.10664916038513184,0.0024927568167640857,-0.01739528496223386,-1.5683222705424598,0.0,0.0
0.10944890975952148,0.0021092557680315593,0.08880750743877286,-1.4218356603341746,0.0,0.0
0.1123504638671875,0.001725754719299033,0.015564202334630295,-1.1416800183108293,0.0,0.0
0.11490035057067871,0.0013422536705647303,-0.10162508583199781,-1.004348821240562,0.0,0.0
0.11804795265197754,0.0013422536705647303,-0.05218585488670158,-1.0812542915999117,0.0,0.0
0.12054038047790527,0.000958752621832204,-0.26947432669565785,-0.8944838635843411,0.0,0.0
0.12332558631896973,0.0005752515730996777,-0.25055313954375436,-0.8523689631494591,0.0,0.0
0.1260361671447754,0.0005752515730996777,0.11261158159761919,-0.7443350881208488,0.0,0.0
0.12897300720214844,0.00019175052436715134,-0.1138323033493549,-0.6802471961547241,0.0,0.0
0.13183283805847168,-0.00019175052436715134,-0.22796978713664373,-0.7315175097276239,0.0,0.0
0.13472437858581543,-0.00019175052436715134,0.16754406042572612,-0.5319295033188354,0.0,0.0
0.13724589347839355,-0.00019175052436715134,-0.01861600671396957,-0.5044632639047819,0.0,0.0
0.13954663276672363,-0.0005752515730996777,0.046692607003890885,-0.46784161135271063,0.0,0.0
0.14241623878479004,-0.0005752515730996777,0.028381780727855244,-0.3524834058136861,0.0,0.0
0.14467072486877441,-0.0005752515730996777,0.10772869459067635,-0.30304417486838986,0.0,0.0
0.14703059196472168,-0.0005752515730996777,-0.14251926451514407,-0.3323414969100469,0.0,0.0
0.14973878860473633,-0.0005752515730996777,-0.12542915999084414,-0.29938200961318273,0.0,0.0
0.1525707244873047,-0.0005752515730996777,0.038757915617608774,-0.32318608377202906,0.0,0.0
0.15511512756347656,-0.0005752515730996777,0.163881895170519,-0.32501716639963263,0.0,0.0
0.1578071117401123,-0.0005752515730996777,0.013122758831158876,-0.23346303501945442,0.0,0.0
0.16049838066101074,-0.0005752515730996777,0.1852445258258939,-0.3121995880064077,0.0,0.0
0.16310501098632812,-0.0005752515730996777,-0.05279621576256943,-0.06317235065232296,0.0,0.0
0.1659102439880371,-0.0005752515730996777,0.11566338597695847,0.008239871824216038,0.0,0.0
0.16893482208251953,-0.0005752515730996777,0.03143358510719452,0.04119935912108019,0.0,0.0
0.17158222198486328,-0.000958752621832204,-0.06195162890058725,0.030212863355458808,0.0,0.0
0.17427968978881836,-0.000958752621832204,-0.18585488670176176,0.08514534218356573,0.0,0.0
0.17730331420898438,-0.0013422536705647303,-0.10894941634241206,0.17669947356374394,0.0,0.0
0.1800391674041748,-0.0013422536705647303,-0.03936827649347663,0.39093614099336094,0.0,0.0
0.1827995777130127,-0.001725754719299033,-0.10345616845960137,0.5539024948500781,0.0,0.0
0.18569731712341309,-0.0021092557680315593,-0.045471885252155175,0.6527809567406706,0.0,0.0
0.1885068416595459,-0.0021092557680315593,-0.023498893720912406,0.7589837491416773,0.0,0.0
0.1912992000579834,-0.0024927568167640857,-0.2700846875715257,0.8377203021286306,0.0,0.0
0.19416356086730957,-0.0024927568167640857,-0.09613183794918712,0.9384298466468266,0.0,0.0
0.19701600074768066,-0.0024927568167640857,0.17547875181200823,1.3046463721675394,0.0,0.0
0.19979643821716309,-0.0024927568167640857,0.01739528496223386,1.0739299610894903,0.0,0.0
0.2025127410888672,-0.0024927568167640857,-0.04058899824521234,1.3467612726024214,0.0,0.0
0.20503878593444824,-0.0024927568167640857,0.1705958648050654,1.3376058594644036,0.0,0.0
0.207686185836792,-0.0028762578654983884,-0.016784924086366004,1.5591668574044348,0.0,0.0
0.21033978462219238,-0.0028762578654983884,-0.159609369039444,1.777065690089259,0.0,0.0
0.2131342887878418,-0.0028762578654983884,0.009460593575951748,1.7129777981231342,0.0,0.0
0.21557116508483887,-0.0028762578654983884,-0.20111390859845812,1.88326848249028,0.0,0.0
0.21834015846252441,-0.0028762578654983884,-0.011902037079423167,1.9931334401464937,0.0,0.0
0.2209327220916748,-0.0032597589142309147,0.06622415503166224,2.289768825818271,0.0,0.0
0.22371816635131836,-0.0032597589142309147,-0.06927595941100151,2.046234836346997,0.0,0.0
0.22654485702514648,-0.0032597589142309147,0.010070954451819603,2.0791943236438613,0.0,0.0
0.2292325496673584,-0.0032597589142309147,0.04852368963149445,2.1084916456855183,0.0,0.0
0.23183393478393555,-0.003643259962963441,-0.23834592202639726,1.9253833829251619,0.0,0.0
0.2344217300415039,-0.003643259962963441,-0.12176699473563701,2.286106660563064,0.0,0.0
0.2366018295288086,-0.003643259962963441,-0.057068741893644415,2.377660791943242,0.0,0.0
0.23876166343688965,-0.003643259962963441,0.019226367589837423,2.1487754634927967,0.0,0.0
0.24080419540405273,-0.003643259962963441,-0.2487220569161508,2.2549782558938034,0.0,0.0
0.24285411834716797,-0.003643259962963441,-0.03143358510719452,2.341039139391171,0.0,0.0
0.24495387077331543,-0.003643259962963441,-0.11017013809414777,2.298924238956289,0.0,0.0
0.2475724220275879,-0.003643259962963441,0.05035477225909801,2.471046005951024,0.0,0.0
0.2503206729888916,-0.003643259962963441,0.07049668116273722,2.223849851224543,0.0,0.0
0.25314879417419434,-0.003643259962963441,0.2529945830472258,2.2806134126802533,0.0,0.0
0.2557790279388428,-0.003643259962963441,0.08758678568703715,2.0224307621881508,0.0,0.0
0.25796055793762207,-0.003643259962963441,0.11993591210803345,1.9858091096360795,0.0,0.0
0.26050281524658203,-0.003643259962963441,-0.07415884641794435,2.0498970016022042,0.0,0.0
0.26323819160461426,-0.003643259962963441,-0.16327153429465113,1.8429846646829873,0.0,0.0
0.2659471035003662,-0.003643259962963441,0.033875028610665936,2.0224307621881508,0.0,0.0
0.2687973976135254,-0.003643259962963441,-0.009460593575951748,1.9070725566491262,0.0,0.0
0.2715754508972168,-0.003643259962963441,-0.1461814297703512,2.0608834973678256,0.0,0.0
0.2743492126464844,-0.003643259962963441,-0.08880750743877286,2.185397116044868,0.0,0.0
0.27715373039245605,-0.0032597589142309147,0.23224231326771871,1.8448157473105908,0.0,0.0
0.2800414562225342,-0.0032597589142309147,0.07354848554207649,2.04257267109179,0.0,0.0
0.28293728828430176,-0.0032597589142309147,0.027161058976119534,1.9986266880293044,0.0,0.0
0.2858436107635498,-0.0032597589142309147,0.058289463645380124,2.0407415884641864,0.0,0.0
0.2896568775177002,-0.0032597589142309147,0.09613183794918712,1.6562142366674237,0.0,0.0
0.2926218509674072,-0.0032597589142309147,0.1138323033493549,1.8905928130006942,0.0,0.0
0.2948591709136963,-0.0028762578654983884,-0.10833905546654421,1.886930647745487,0.0,0.0
0.2977771759033203,-0.0028762578654983884,-0.04119935912108019,1.5298695353627778,0.0,0.0
0.3018767833709717,-0.0028762578654983884,0.09185931181811213,1.7679102769512411,0.0,0.0
0.3047165870666504,-0.0028762578654983884,-0.07904173342488718,1.68001831082627,0.0,0.0
0.3071117401123047,-0.0028762578654983884,-0.12664988174257985,1.2735179674982788,0.0,0.0
0.3113901615142822,-0.0024927568167640857,0.18097199969481892,1.4584573128862388,0.0,0.0
0.31428027153015137,-0.0024927568167640857,-0.0936903944457157,1.507896543831535,0.0,0.0
0.31702160835266113,-0.0024927568167640857,0.11261158159761919,1.251544975967036,0.0,0.0
0.32004332542419434,-0.0028762578654983884,-0.26947432669565785,1.3815518425268891,0.0,0.0
0.3232707977294922,-0.0024927568167640857,0.14312962539101193,1.7129777981231342,0.0,0.0
0.32622671127319336,-0.0024927568167640857,-0.12909132524605127,1.1123826962691652,0.0,0.0
0.32866597175598145,-0.0021092557680315593,0.163881895170519,1.5188830395971564,0.0,0.0
0.3324437141418457,-0.0021092557680315593,0.0802624551766229,1.2863355458915038,0.0,0.0
0.33609724044799805,-0.0021092557680315593,0.05218585488670158,0.8670176241702876,0.0,0.0
0.33887171745300293,-0.0021092557680315593,-0.17669947356374394,0.8267338063630092,0.0,0.0
0.3418717384338379,-0.001725754719299033,-0.07537956816968006,0.7809567406729201,0.0,0.0
0.34586119651794434,-0.001725754719299033,0.18463416495002605,0.7974364843213522,0.0,0.0
0.3498721122741699,-0.001725754719299033,0.08514534218356573,0.7974364843213522,0.0,0.0
0.3530912399291992,-0.0013422536705647303,0.21393148699168307,0.7205310139620025,0.0,0.0
0.35697197914123535,-0.0013422536705647303,0.008850232700083893,0.5960173952849601,0.0,0.0
0.35971927642822266,-0.0013422536705647303,-0.16754406042572612,0.6527809567406706,0.0,0.0
0.36180806159973145,-0.0013422536705647303,-0.022278171969176697,0.5374227512016461,0.0,0.0
0.3659701347351074,-0.000958752621832204,0.10223544670786566,0.42572671091782865,0.0,0.0
0.36987781524658203,-0.000958752621832204,0.01739528496223386,0.20599679560540096,0.0,0.0
0.37240147590637207,-0.000958752621832204,-0.03204394598306237,0.2920576791027685,0.0,0.0
0.3758070468902588,-0.0005752515730996777,0.22735942626077588,0.05951018539711583,0.0,0.0
0.37996649742126465,-0.0005752515730996777,0.14129854276340836,0.24811169604028294,0.0,0.0
0.38336849212646484,-0.00019175052436715134,0.20233463035019383,0.3726253147173253,0.0,0.0
0.3866245746612549,-0.00019175052436715134,0.07721065079728362,0.06317235065232296,0.0,0.0
0.39035964012145996,-0.00019175052436715134,-0.09674219882505497,0.03204394598306237,0.0,0.0
0.3931539058685303,-0.00019175052436715134,0.14984359502555833,-0.010070954451819603,0.0,0.0
0.39548754692077637,-0.00019175052436715134,0.1907377737087046,0.0869764248111693,0.0,0.0
0.39934849739074707,-0.00019175052436715134,0.06622415503166224,0.06866559853513365,0.0,0.0
0.40294408798217773,-0.00019175052436715134,0.06073090714885154,-0.05767910276951227,0.0,0.0
0.40577054023742676,-0.00019175052436715134,-0.024719615472648115,0.0613412680247194,0.0,0.0
0.4095582962036133,-0.00019175052436715134,-0.019836728465705278,0.13641565575646553,0.0,0.0
0.4128592014312744,-0.00019175052436715134,0.19501029983977958,0.07782101167315147,0.0,0.0
0.41566896438598633,-0.00019175052436715134,-0.10345616845960137,0.05035477225909801,0.0,0.0
0.41829681396484375,-0.00019175052436715134,0.1785305561913475,-0.015564202334630295,0.0,0.0
0.42200207710266113,-0.00019175052436715134,-0.06256198977645511,-0.05401693751430514,0.0,0.0
0.42534589767456055,-0.00019175052436715134,0.13336385137712625,-0.030212863355458808,0.0,0.0
0.4278397560119629,-0.00019175052436715134,0.033875028610665936,-0.10345616845960137,0.0,0.0
0.4315648078918457,-0.00019175052436715134,-0.01373311970702673,0.03936827649347663,0.0,0.0
0.4346749782562256,-0.00019175052436715134,-0.07293812466620864,-0.06866559853513365,0.0,0.0
0.4373438358306885,-0.00019175052436715134,0.03204394598306237,-0.13092240787365483,0.0,0.0
0.4397456645965576,-0.00019175052436715134,0.03265430685893023,-0.043030441748683756,0.0,0.0
0.44424009323120117,-0.00019175052436715134,0.0021362630655374915,0.01373311970702673,0.0,0.0
0.4477849006652832,-0.00019175052436715134,-0.03448538948653379,0.024719615472648115,0.0,0.0
0.4502284526824951,-0.00019175052436715134,-0.28168154421301494,-0.15472648203250117,0.0,0.0
0.45462942123413086,-0.00019175052436715134,0.15716792553597259,-0.12542915999084414,0.0,0.0
0.4579780101776123,-0.00019175052436715134,-0.053406576638437286,-0.10528725108720494,0.0,0.0
0.46071410179138184,-0.00019175052436715134,-0.22186617837796518,-0.002746623941405346,0.0,0.0
0.4639427661895752,-0.00019175052436715134,0.17669947356374394,-0.05218585488670158,0.0,0.0
0.46788811683654785,-0.00019175052436715134,-0.1071183337148085,-0.06317235065232296,0.0,0.0
0.4712255001068115,-0.00019175052436715134,-0.05035477225909801,-0.030212863355458808,0.0,0.0
0.47473859786987305,-0.00019175052436715134,-0.03143358510719452,-0.000915541313801782,0.0,0.0
0.4790306091308594,-0.00019175052436715134,0.06256198977645511,-0.14923323414969047,0.0,0.0
0.48203086853027344,-0.00019175052436715134,-0.04974441138323016,-0.11444266422522276,0.0,0.0
0.48517656326293945,-0.00019175052436715134,0.011902037079423167,-0.2041657129777974,0.0,0.0
0.4889249801635742,-0.00019175052436715134,-0.07232776379034078,-0.09246967269397999,0.0,0.0
0.4917478561401367,-0.00019175052436715134,-0.25726710917830076,-0.11444266422522276,0.0,0.0
0.4957890510559082,-0.00019175052436715134,-0.09857328145265853,-0.05218585488670158,0.0,0.0
0.49994325637817383,-0.00019175052436715134,0.0936903944457157,-0.14923323414969047,0.0,0.0
0.5036458969116211,-0.00019175052436715134,-0.088197146562905,-0.0613412680247194,0.0,0.0
0.5062201023101807,-0.00019175052436715134,0.10589761196307279,-0.1272602426184477,0.0,0.0
0.5084972381591797,-0.00019175052436715134,0.04974441138323016,-0.23163195239185086,0.0,0.0
0.5129303932189941,-0.00019175052436715134,0.047913328755626594,-0.15106431677729404,0.0,0.0
0.5168132781982422,-0.00019175052436715134,0.019836728465705278,-0.11444266422522276,0.0,0.0
0.5215611457824707,-0.00019175052436715134,0.08087281605249075,0.002746623941405346,0.0,0.0
0.5264725685119629,-0.00019175052436715134,-0.07354848554207649,-0.193179217212176,0.0,0.0
0.529881477355957,-0.00019175052436715134,-0.08331425955596217,-0.3213550011444255,0.0,0.0
0.53450608253479,-0.00019175052436715134,0.02410925459678026,-0.13641565575646553,0.0,0.0
0.5387997627258301,-0.00019175052436715134,0.14862287327382262,-0.11444266422522276,0.0,0.0
0.5435009002685547,-0.00019175052436715134,-0.025940337224383825,-0.18219272144655463,0.0,0.0
0.5484251976013184,-0.00019175052436715134,0.038757915617608774,-0.06500343327992653,0.0,0.0
0.5525963306427002,-0.00019175052436715134,-0.000915541313801782,-0.09063859006637642,0.0,0.0
0.5580003261566162,-0.00019175052436715134,-0.16815442130159397,-0.23895628290226512,0.0,0.0
0.562767505645752,-0.00019175052436715134,-0.023498893720912406,-0.16754406042572612,0.0,0.0
0.5672273635864258,-0.00019175052436715134,-0.04608224612802303,-0.19684138246738314,0.0,0.0
0.5700223445892334,-0.00019175052436715134,0.06317235065232296,-0.10162508583199781,0.0,0.0
0.5731327533721924,-0.00019175052436715134,-0.030212863355458808,-0.14923323414969047,0.0,0.0
0.5763301849365234,-0.00019175052436715134,0.05279621576256943,-0.12909132524605127,0.0,0.0
0.5791387557983398,-0.00019175052436715134,-0.29755092698557917,-0.3213550011444255,0.0,0.0
0.5819528102874756,-0.00019175052436715134,-0.10223544670786566,-0.22613870450904017,0.0,0.0
0.5847516059875488,-0.00019175052436715134,-0.0021362630655374915,-0.16571297779812255,0.0,0.0
0.5875015258789062,-0.00019175052436715134,0.23224231326771871,-0.22247653925383304,0.0,0.0
0.590266227722168,-0.00019175052436715134,0.037537193865873064,-0.18036163881895106,0.0,0.0
0.5926690101623535,0.00019175052436715134,0.24017700465400083,-0.24261844815747224,0.0,0.0
0.5953965187072754,-0.00019175052436715134,-0.10955977721827992,-0.2188143739986259,0.0,0.0
0.5980250835418701,-0.00019175052436715134,0.00579842832074462,-0.1382467383840691,0.0,0.0
0.6003904342651367,-0.00019175052436715134,0.000915541313801782,-0.26825360494392214,0.0,0.0
0.6026816368103027,-0.00019175052436715134,-0.08270389868009431,-0.18036163881895106,0.0,0.0
0.605004072189331,-0.00019175052436715134,0.028381780727855244,-0.2041657129777974,0.0,0.0
0.6072912216186523,-0.00019175052436715134,-0.05645838101777656,-0.07232776379034078,0.0,0.0
0.6096146106719971,-0.00019175052436715134,-0.02777141985198739,-0.3378347447928576,0.0,0.0
0.6123409271240234,-0.00019175052436715134,-0.07537956816968006,-0.21515220874341878,0.0,0.0
0.6150946617126465,-0.00019175052436715134,-0.11139085984588348,-0.24628061341267937,0.0,0.0
0.6177804470062256,-0.00019175052436715134,0.15228503852902975,-0.37079423208972173,0.0,0.0
0.6201095581054688,-0.00019175052436715134,-0.11505302510109061,-0.17486839093614037,0.0,0.0
0.6229348182678223,0.00019175052436715134,-0.009460593575951748,-0.26825360494392214,0.0,0.0
0.6254885196685791,-0.00019175052436715134,-0.14007782101167265,-0.2792401007095435,0.0,0.0
0.6286096572875977,-0.00019175052436715134,-0.0015259021896696368,-0.35431448844128965,0.0,0.0
0.6314594745635986,0.00019175052436715134,-0.0936903944457157,-0.3872739757381538,0.0,0.0
0.6341571807861328,0.00019175052436715134,-0.019226367589837423,-0.40009155413137876,0.0,0.0
0.6369457244873047,0.00019175052436715134,-0.18768596932936532,-0.44037537193865717,0.0,0.0
0.6396174430847168,0.00019175052436715134,-0.0021362630655374915,-0.3524834058136861,0.0,0.0
0.642223596572876,0.00019175052436715134,-0.021667811093308842,-0.41474021515220727,0.0,0.0
0.6448891162872314,0.00019175052436715134,-0.06866559853513365,-0.4129091325246037,0.0,0.0
0.6478176116943359,0.00019175052436715134,0.13763637750820124,-0.4220645456626215,0.0,0.0
0.6505200862884521,0.00019175052436715134,0.043030441748683756,-0.49164568551155696,0.0,0.0
0.6532402038574219,0.00019175052436715134,-0.3140306706340148,-0.4019226367589823,0.0,0.0
0.6554105281829834,0.0005752515730996777,-0.009460593575951748,-0.5429159990844568,0.0,0.0
0.6574580669403076,0.0005752515730996777,-0.08575570305943359,-0.4751659418631249,0.0,0.0
