time,position,velocity,torque,position_ref,velocity_ref
7.152557373046875e-07,0.023201813448347153,-0.26654459449149215,-0.00025940337224383825,0.0,0.0
0.0027723312377929688,0.022818312399614626,-0.21149004348821165,-0.9169909208819718,0.0,0.0
0.005509614944458008,0.02090080715595022,-0.8426031891355805,-0.6238651102464345,0.0,0.0
0.008196592330932617,0.018983301912284034,-0.7056382085908339,-0.5745784695201053,0.0,0.0
0.01087641716003418,0.017065796668619626,-0.2558022430762179,-1.0005188067444877,0.0,0.0
0.013530254364013672,0.0166822956198871,-0.09063859006637642,-1.592996108949416,0.0,0.0
0.016277313232421875,0.01591529352242027,-0.21283283741512093,-1.4140077821011676,0.0,0.0
0.01904296875,0.014381289327488389,-0.5928435187304473,-1.138002594033722,0.0,0.0
0.022029399871826172,0.012847285132556507,-0.505561913481344,-1.0083009079118028,0.0,0.0
0.02478504180908203,0.011696781986357152,-0.5740444037537173,-0.9024643320363168,0.0,0.0
0.027598857879638672,0.009395775693958441,-1.0198519874876055,-0.20933852140077747,0.0,0.0
0.030787229537963867,0.006327767304094678,-0.8708018616006754,0.0983138780804147,0.0,0.0
0.03384232521057129,0.003643259962963441,-0.8748302433814032,0.2440985732814518,0.0,0.0
0.036623477935791016,0.0021092557680315593,-0.6425268940260906,0.23320363164721059,0.0,0.0
0.03960371017456055,0.0005752515730996777,-0.5377889677271668,0.2788586251621261,0.0,0.0
0.04266214370727539,-0.000958752621832204,-0.6183566033417236,0.5953307392996123,0.0,0.0
0.04543805122375488,-0.0021092557680315593,-0.15912108033874972,0.7571984435797674,0.0,0.0
0.04814291000366211,-0.0028762578654983884,-0.03692683299000521,0.4671854734111527,0.0,0.0
0.05083894729614258,-0.0028762578654983884,-0.11078049897001563,0.3193255512321649,0.0,0.0
0.05376076698303223,-0.0028762578654983884,-0.11346608682383419,0.17405966277561546,0.0,0.0
0.056287288665771484,-0.0028762578654983884,-0.13092240787365483,0.20363164721141302,0.0,0.0
0.05911397933959961,-0.0024927568167640857,0.12286564431219915,0.03398184176394281,0.0,0.0
0.06146073341369629,-0.0021092557680315593,0.2088044556343931,0.20051880674448697,0.0,0.0
0.06413722038269043,-0.0021092557680315593,0.08258182650492074,0.0028534370946822207,0.0,0.0
0.06686687469482422,-0.001725754719299033,0.019470511940184565,0.14604409857328093,0.0,0.0
0.0692286491394043,-0.001725754719299033,0.05035477225909801,0.16835278858625102,0.0,0.0
0.07172274589538574,-0.0013422536705647303,0.26788738841840143,0.06874189364461714,0.0,0.0
0.0744621753692627,-0.000958752621832204,0.47736324101624916,-0.149156939040207,0.0,0.0
0.07711243629455566,0.00019175052436715134,0.371282520790416,-0.4552529182879397,0.0,0.0
0.08017253875732422,0.0005752515730996777,-0.0919813839932857,-0.13929961089494114,0.0,0.0
0.08327651023864746,0.0005752515730996777,0.10406652933546923,-0.00025940337224383825,0.0,0.0
0.08613061904907227,0.0005752515730996777,-0.12420843823910843,-0.00025940337224383825,0.0,0.0
0.08905529975891113,0.00019175052436715134,-0.13763637750820124,-0.00025940337224383825,0.0,0.0
0.0918281078338623,0.00019175052436715134,-0.14435034714274764,-0.00025940337224383825,0.0,0.0
0.09485936164855957,-0.00019175052436715134,-0.24371709773403438,-0.00025940337224383825,0.0,0.0
0.09860968589782715,-0.0005752515730996777,0.15777828641184044,0.1071335927367052,0.0,0.0
0.1006932258605957,-0.0005752515730996777,-0.1336079957274734,-0.00025940337224383825,0.0,0.0
0.10269832611083984,-0.000958752621832204,0.059754329747462975,0.19014267185473344,0.0,0.0
0.10471487045288086,-0.000958752621832204,-0.12152285038528987,0.12529182879377387,0.0,0.0
0.10710477828979492,-0.000958752621832204,0.03558403906309593,-0.00025940337224383825,0.0,0.0
0.10991668701171875,-0.000958752621832204,0.054383154039825854,0.005447470817120603,0.0,0.0
0.11302733421325684,-0.0013422536705647303,0.022156099794003126,0.05162127107652381,0.0,0.0
0.11591076850891113,-0.0013422536705647303,-0.23431754024566942,-0.00025940337224383825,0.0,0.0
0.11880683898925781,-0.000958752621832204,-0.03558403906309593,-0.00025940337224383825,0.0,0.0
0.1214451789855957,-0.000958752621832204,-0.0020141908903639205,-0.00025940337224383825,0.0,0.0
0.1235344409942627,-0.000958752621832204,0.12286564431219915,-0.00025940337224383825,0.0,0.0
0.12554240226745605,-0.0005752515730996777,0.3309987029831376,-0.00025940337224383825,0.0,0.0
0.12821054458618164,-0.00019175052436715134,-0.1336079957274734,-0.06770428015564178,0.0,0.0
0.13087868690490723,-0.00019175052436715134,-0.0986953536278321,-0.004928664072632927,0.0,0.0
0.133589506149292,0.00019175052436715134,0.4330510414282429,-0.00025940337224383825,0.0,0.0
0.1362931728363037,0.00019175052436715134,0.1671778439002054,-0.05577172503242522,0.0,0.0
0.13895702362060547,0.00019175052436715134,0.03826962691691449,-0.00025940337224383825,0.0,0.0
0.14177727699279785,-0.00019175052436715134,-0.03826962691691449,-0.00025940337224383825,0.0,0.0
0.14465951919555664,-0.00019175052436715134,-0.23834592202639726,-0.00025940337224383825,0.0,0.0
0.14768624305725098,-0.00019175052436715134,-0.20343327992675597,-0.00025940337224383825,0.0,0.0
0.15081024169921875,-0.0005752515730996777,-0.09466697184710426,0.036057068741893517,0.0,0.0
0.15337491035461426,-0.0005752515730996777,-0.15643549248493116,-0.00025940337224383825,0.0,0.0
0.15618610382080078,-0.0005752515730996777,-0.12420843823910843,-0.00025940337224383825,0.0,0.0
0.15842056274414062,-0.0005752515730996777,-0.06915388723582794,-0.00025940337224383825,0.0,0.0
0.16122865676879883,-0.000958752621832204,0.04095521477073305,-0.00025940337224383825,0.0,0.0
0.16416072845458984,-0.000958752621832204,-0.023498893720912406,-0.00025940337224383825,0.0,0.0
0.1670849323272705,-0.000958752621832204,0.03155565728236809,-0.00025940337224383825,0.0,0.0
0.16977453231811523,-0.000958752621832204,-0.10406652933546923,-0.00025940337224383825,0.0,0.0
0.17243528366088867,-0.0013422536705647303,-0.023498893720912406,-0.00025940337224383825,0.0,0.0
0.17470359802246094,-0.000958752621832204,-0.1470359349965662,0.0562905317769129,0.0,0.0
0.17744731903076172,-0.000958752621832204,0.004699778744182481,0.00025940337224383825,0.0,0.0
0.18002104759216309,-0.000958752621832204,-0.21417563134203021,-0.00025940337224383825,0.0,0.0
0.18287944793701172,-0.000958752621832204,-0.018127718013275285,-0.00025940337224383825,0.0,0.0
0.18572664260864258,-0.000958752621832204,0.15509269855802188,-0.00025940337224383825,0.0,0.0
0.1886000633239746,-0.000958752621832204,-0.03289845120927737,-0.00025940337224383825,0.0,0.0
0.19158244132995605,-0.0005752515730996777,0.21417563134203021,-0.00025940337224383825,0.0,0.0
0.19429373741149902,-0.000958752621832204,0.0986953536278321,0.12269779507133549,0.0,0.0
0.1970081329345703,-0.000958752621832204,0.07318226901655578,0.023086900129701604,0.0,0.0
0.19953083992004395,-0.000958752621832204,0.10406652933546923,-0.00025940337224383825,0.0,0.0
0.2022538185119629,-0.000958752621832204,-0.07721065079728362,-0.00025940337224383825,0.0,0.0
0.20480847358703613,-0.000958752621832204,-0.04901197833218873,-0.00025940337224383825,0.0,0.0
0.2073371410369873,-0.000958752621832204,0.10138094148165067,-0.00025940337224383825,0.0,0.0
0.21012449264526367,-0.000958752621832204,-0.022156099794003126,-0.00025940337224383825,0.0,0.0
0.21294665336608887,-0.000958752621832204,-0.011413748378728883,-0.00025940337224383825,0.0,0.0
0.21566247940063477,-0.000958752621832204,0.14972152285038476,0.05525291828793755,0.0,0.0
0.21883249282836914,-0.000958752621832204,-0.012756542305638163,0.01478599221789878,0.0,0.0
0.22190642356872559,-0.000958752621832204,0.0785534447241929,0.05940337224383896,0.0,0.0
0.22441983222961426,-0.000958752621832204,0.19000534065766317,0.018936446173800192,0.0,0.0
0.2273857593536377,-0.000958752621832204,-0.13629358358129195,-0.00025940337224383825,0.0,0.0
0.23039937019348145,-0.000958752621832204,0.016784924086366004,-0.00025940337224383825,0.0,0.0
0.2335214614868164,-0.000958752621832204,-0.03155565728236809,0.11128404669260661,0.0,0.0
0.23643803596496582,-0.000958752621832204,-0.03289845120927737,-0.00025940337224383825,0.0,0.0
0.2393476963043213,-0.000958752621832204,0.3028000305180427,-0.00025940337224383825,0.0,0.0
0.24235868453979492,-0.000958752621832204,-0.010070954451819603,-0.00025940337224383825,0.0,0.0
0.24531221389770508,-0.000958752621832204,0.08661020828564858,-0.00025940337224383825,0.0,0.0
0.24835944175720215,-0.000958752621832204,0.1255512321660177,0.010116731517509692,0.0,0.0
0.2510087490081787,-0.000958752621832204,0.21149004348821165,-0.00025940337224383825,0.0,0.0
0.2539689540863037,-0.000958752621832204,-0.26788738841840143,-0.00025940337224383825,0.0,0.0
0.2567768096923828,-0.000958752621832204,-0.055725947966735134,-0.00025940337224383825,0.0,0.0
0.25963664054870605,-0.000958752621832204,-0.09735255970092282,-0.00025940337224383825,0.0,0.0
0.2626657485961914,-0.000958752621832204,0.06646829938200938,0.04539559014267169,0.0,0.0
0.2655148506164551,-0.000958752621832204,0.2840009155413128,0.024124513618676957,0.0,0.0
0.26836371421813965,-0.000958752621832204,0.0020141908903639205,0.029312581063553722,0.0,0.0
0.27099609375,-0.000958752621832204,0.160463874265659,-0.00025940337224383825,0.0,0.0
0.27330708503723145,-0.000958752621832204,-0.16852063782711468,-0.00025940337224383825,0.0,0.0
0.2763550281524658,-0.000958752621832204,0.061097123674372256,-0.00025940337224383825,0.0,0.0
0.2792351245880127,-0.000958752621832204,0.21014724956130237,0.1403372243839165,0.0,0.0
0.28229522705078125,-0.000958752621832204,0.3296559090562283,0.14345006485084255,0.0,0.0
0.2849850654602051,-0.000958752621832204,0.160463874265659,0.049546044098573105,0.0,0.0
0.28762197494506836,-0.0013422536705647303,-0.057068741893644415,0.043839169909208664,0.0,0.0
0.29036927223205566,-0.0013422536705647303,-0.14837872892347548,-0.00025940337224383825,0.0,0.0
0.2927999496459961,-0.000958752621832204,0.07989623865110218,0.1247730220492862,0.0,0.0
0.29550790786743164,-0.000958752621832204,-0.062439917601281536,0.09312581063553793,0.0,0.0
0.29813599586486816,-0.0013422536705647303,0.0852674143587393,0.06770428015564178,0.0,0.0
0.3006892204284668,-0.0013422536705647303,-0.11078049897001563,-0.00025940337224383825,0.0,0.0
0.30323266983032227,-0.0013422536705647303,-0.1738918135347518,0.052658884565499164,0.0,0.0
0.30593109130859375,-0.0013422536705647303,-0.0785534447241929,0.04435797665369634,0.0,0.0
0.3087160587310791,-0.0013422536705647303,-0.014099336232547444,0.03294422827496746,0.0,0.0
0.3114473819732666,-0.000958752621832204,0.13629358358129195,0.08119325551232137,0.0,0.0
0.3140697479248047,-0.000958752621832204,-0.07049668116273722,0.014267185473411104,0.0,0.0
0.3167703151702881,-0.000958752621832204,-0.10138094148165067,0.033463035019455134,0.0,0.0
0.3193342685699463,-0.0013422536705647303,-0.04229800869764233,0.007003891050583633,0.0,0.0
0.32219386100769043,-0.000958752621832204,0.19940489814602813,0.023086900129701604,0.0,0.0
0.3250298500061035,-0.0013422536705647303,0.026184481574730967,0.09468223086900096,0.0,0.0
0.32757115364074707,-0.0013422536705647303,-0.10675211718928779,-0.00025940337224383825,0.0,0.0
0.3301122188568115,-0.0013422536705647303,-0.053040360112916574,-0.00025940337224383825,0.0,0.0
0.3327517509460449,-0.0013422536705647303,0.1738918135347518,0.0298313878080414,0.0,0.0
0.3354160785675049,-0.0013422536705647303,-0.2020904859998467,0.17821011673151688,0.0,0.0
0.33785080909729004,-0.0013422536705647303,-0.2638590066376736,-0.00025940337224383825,0.0,0.0
0.3405752182006836,-0.0013422536705647303,-0.16449225604638684,-0.00025940337224383825,0.0,0.0
0.3430061340332031,-0.0013422536705647303,0.10272373540855995,0.007003891050583633,0.0,0.0
0.3456447124481201,-0.0013422536705647303,-0.03289845120927737,-0.00025940337224383825,0.0,0.0
0.3482985496520996,-0.0013422536705647303,-0.04766918440527945,0.07133592736705552,0.0,0.0
0.350736141204834,-0.0013422536705647303,-0.015442130159456724,0.07496757457846925,0.0,0.0
0.3534379005432129,-0.0013422536705647303,0.027527275501640247,0.06407263294422805,0.0,0.0
0.3561079502105713,-0.0013422536705647303,0.2155184252689395,-0.00025940337224383825,0.0,0.0
0.3584291934967041,-0.000958752621832204,0.04498359655146089,0.12062256809338479,0.0,0.0
0.36112093925476074,-0.0013422536705647303,-0.09600976577401354,-0.00025940337224383825,0.0,0.0
0.36380577087402344,-0.0013422536705647303,0.04498359655146089,0.15642023346303446,0.0,0.0
0.3665151596069336,-0.0013422536705647303,0.13495078965438267,-0.00025940337224383825,0.0,0.0
0.36914730072021484,-0.0013422536705647303,0.03692683299000521,0.011673151750972721,0.0,0.0
0.37184762954711914,-0.0013422536705647303,0.0020141908903639205,0.0651102464332034,0.0,0.0
0.3744618892669678,-0.0013422536705647303,-0.12286564431219915,0.02049286640726322,0.0,0.0
0.3771841526031494,-0.0013422536705647303,-0.015442130159456724,0.17405966277561546,0.0,0.0
0.37980175018310547,-0.000958752621832204,-0.004699778744182481,0.11076523994811893,0.0,0.0
0.38245296478271484,-0.0013422536705647303,-0.2625162127107643,-0.00025940337224383825,0.0,0.0
0.38509631156921387,-0.0013422536705647303,-0.03826962691691449,0.03138780804150443,0.0,0.0
0.387775182723999,-0.0013422536705647303,0.023498893720912406,-0.00025940337224383825,0.0,0.0
0.3904409408569336,-0.000958752621832204,0.14300755321583836,-0.00025940337224383825,0.0,0.0
0.3928065299987793,-0.0013422536705647303,0.03961242084382377,0.13618677042801508,0.0,0.0
0.3952944278717041,-0.0013422536705647303,0.20343327992675597,0.015304798962386457,0.0,0.0
0.3980598449707031,-0.000958752621832204,0.22626077668421374,0.1382619974059658,0.0,0.0
0.400784969329834,-0.0013422536705647303,0.13629358358129195,0.04487678339818402,0.0,0.0
0.4034452438354492,-0.0013422536705647303,0.16180666819256828,0.04591439688715937,0.0,0.0
0.406080961227417,-0.0013422536705647303,-0.13897917143511052,-0.00025940337224383825,0.0,0.0
0.40877747535705566,-0.0013422536705647303,0.027527275501640247,0.09623865110246399,0.0,0.0
0.4114809036254883,-0.0013422536705647303,0.062439917601281536,-0.00025940337224383825,0.0,0.0
0.414104700088501,-0.0013422536705647303,0.08123903257801146,0.03242542153047978,0.0,0.0
0.416292667388916,-0.0013422536705647303,-0.028870069428549527,0.03968871595330725,0.0,0.0
0.4190049171447754,-0.0013422536705647303,-0.17926298924238893,0.15849546044098517,0.0,0.0
0.4216458797454834,-0.0013422536705647303,-0.16852063782711468,-0.00025940337224383825,0.0,0.0
0.42436981201171875,-0.0013422536705647303,-0.03961242084382377,0.10661478599221752,0.0,0.0
0.42664074897766113,-0.0013422536705647303,0.04364080262455161,0.0018158236057068677,0.0,0.0
0.42902040481567383,-0.0013422536705647303,-0.19671931029220957,-0.00025940337224383825,0.0,0.0
0.43173718452453613,-0.000958752621832204,0.1738918135347518,0.09053177691309955,0.0,0.0
0.43440675735473633,-0.0013422536705647303,-0.03424124513618665,-0.00025940337224383825,0.0,0.0
0.4368007183074951,-0.000958752621832204,-0.0060425726710917615,-0.00025940337224383825,0.0,0.0
0.4390552043914795,-0.000958752621832204,-0.0020141908903639205,-0.00025940337224383825,0.0,0.0
0.44175243377685547,-0.000958752621832204,0.054383154039825854,-0.00025940337224383825,0.0,0.0
0.44443202018737793,-0.000958752621832204,0.30682841229877056,-0.00025940337224383825,0.0,0.0
0.44710254669189453,-0.000958752621832204,0.16449225604638684,0.0018158236057068677,0.0,0.0
0.4497694969177246,-0.000958752621832204,-0.16314946211947756,-0.00025940337224383825,0.0,0.0
0.4524514675140381,-0.000958752621832204,0.20343327992675597,0.05369649805447452,0.0,0.0
0.455120325088501,-0.000958752621832204,-0.08392462043183002,-0.00025940337224383825,0.0,0.0
0.4576854705810547,-0.000958752621832204,0.0785534447241929,-0.00025940337224383825,0.0,0.0
0.46004629135131836,-0.000958752621832204,-0.18329137102311677,0.009597924773022015,0.0,0.0
0.46266651153564453,-0.000958752621832204,0.024841687647821686,0.042282749675745634,0.0,0.0
0.46544384956359863,-0.000958752621832204,0.008728160524910322,-0.00025940337224383825,0.0,0.0
0.46814417839050293,-0.000958752621832204,-0.11883726253147131,-0.00025940337224383825,0.0,0.0
0.47084641456604004,-0.000958752621832204,-0.04229800869764233,0.008560311284046662,0.0,0.0
0.4735424518585205,-0.000958752621832204,0.04229800869764233,0.06874189364461714,0.0,0.0
0.47624969482421875,-0.000958752621832204,-0.07586785687037434,0.06874189364461714,0.0,0.0
0.47876882553100586,-0.000958752621832204,0.06646829938200938,0.08793774319066117,0.0,0.0
0.48134303092956543,-0.000958752621832204,0.027527275501640247,0.0033722438391698972,0.0,0.0
0.4837779998779297,-0.000958752621832204,0.03289845120927737,0.05888456549935128,0.0,0.0
0.4864377975463867,-0.000958752621832204,0.17926298924238893,0.1424124513618672,0.0,0.0
0.48914504051208496,-0.0013422536705647303,0.0020141908903639205,-0.00025940337224383825,0.0,0.0
0.49272751808166504,-0.000958752621832204,0.14435034714274764,0.1735408560311278,0.0,0.0
0.4955575466156006,-0.000958752621832204,0.23163195239185086,0.04539559014267169,0.0,0.0
0.4982614517211914,-0.000958752621832204,0.10138094148165067,0.10194552529182843,0.0,0.0
0.5009522438049316,-0.000958752621832204,0.07318226901655578,-0.00025940337224383825,0.0,0.0
0.5036790370941162,-0.0013422536705647303,-0.23834592202639726,-0.00025940337224383825,0.0,0.0
0.5064432621002197,-0.000958752621832204,-0.13629358358129195,0.15486381322957143,0.0,0.0
0.5092244148254395,-0.000958752621832204,0.1886625467307539,-0.00025940337224383825,0.0,0.0
0.512460470199585,-0.0013422536705647303,0.11749446860456203,0.09935149156939005,0.0,0.0
0.5155370235443115,-0.000958752621832204,-0.015442130159456724,0.06977950713359249,0.0,0.0
0.5185110569000244,-0.0013422536705647303,0.07989623865110218,-0.00025940337224383825,0.0,0.0
0.521582841873169,-0.0013422536705647303,0.05035477225909801,0.0386511024643319,0.0,0.0
0.5245640277862549,-0.0013422536705647303,-0.08795300221255786,-0.00025940337224383825,0.0,0.0
0.527510404586792,-0.0013422536705647303,0.0718394750896465,0.043839169909208664,0.0,0.0
0.5305922031402588,-0.0013422536705647303,-0.12957961394674555,-0.00025940337224383825,0.0,0.0
0.5332698822021484,-0.000958752621832204,0.10540932326237851,-0.00025940337224383825,0.0,0.0
0.5358626842498779,-0.0013422536705647303,0.0651255054551001,0.12788586251621226,0.0,0.0
0.5380990505218506,-0.0013422536705647303,-0.007385366598001042,-0.00025940337224383825,0.0,0.0
0.5407161712646484,-0.000958752621832204,0.07721065079728362,-0.00025940337224383825,0.0,0.0
0.5431084632873535,-0.0013422536705647303,-0.0919813839932857,-0.00025940337224383825,0.0,0.0
0.5457868576049805,-0.0013422536705647303,0.16314946211947756,0.07081712062256784,0.0,0.0
0.5485184192657471,-0.0013422536705647303,-0.4115663385976944,-0.00025940337224383825,0.0,0.0
0.5511026382446289,-0.000958752621832204,-0.026184481574730967,0.10142671854734076,0.0,0.0
0.5541458129882812,-0.0013422536705647303,-0.21954680704966734,-0.00025940337224383825,0.0,0.0
0.5569617748260498,-0.0013422536705647303,-0.19000534065766317,0.009597924773022015,0.0,0.0
0.5599720478057861,-0.0013422536705647303,-0.09332417792019498,-0.00025940337224383825,0.0,0.0
0.5631320476531982,-0.0013422536705647303,-0.07989623865110218,-0.00025940337224383825,0.0,0.0
0.5659728050231934,-0.0013422536705647303,-0.07318226901655578,0.17146562905317708,0.0,0.0
0.568915605545044,-0.0013422536705647303,0.062439917601281536,-0.00025940337224383825,0.0,0.0
0.5717899799346924,-0.0013422536705647303,-0.06646829938200938,0.09623865110246399,0.0,0.0
0.5747144222259521,-0.0013422536705647303,0.0651255054551001,-0.00025940337224383825,0.0,0.0
0.5773746967315674,-0.0013422536705647303,0.016784924086366004,0.03242542153047978,0.0,0.0
0.5800001621246338,-0.0013422536705647303,0.11883726253147131,0.1403372243839165,0.0,0.0
0.5822181701660156,-0.0013422536705647303,-0.003356984817273201,0.030350194552529075,0.0,0.0
0.5844666957855225,-0.0013422536705647303,-0.054383154039825854,0.09623865110246399,0.0,0.0
