time,position,velocity,torque,position_ref,velocity_ref
7.152557373046875e-07,0.020517306107215916,0.12018005645838059,-0.03242542153047978,-0.0,-0.0
0.0021550655364990234,0.020517306107215916,-0.1738918135347518,-0.770687418936447,-0.0,-0.0
0.004205465316772461,0.01936680296101656,-0.5592736705577153,-0.7302204928664082,-0.0,-0.0
0.006485462188720703,0.017449297717352152,-0.8452887769893991,-0.7105058365758765,-0.0,-0.0
0.008737325668334961,0.015148291424953442,-1.0547646295872468,-0.41219195849546253,-0.0,-0.0
0.01093149185180664,0.012847285132556507,-0.97419699397269,0.1092088197146559,-0.0,-0.0
0.013708829879760742,0.010929779888890323,-0.7324940871290195,-0.03709468223086887,-0.0,-0.0
0.016442060470581055,0.009012274645225915,-0.5310749980926204,-0.43138780804150656,-0.0,-0.0
0.019311904907226562,0.00786177149902656,-0.3296559090562283,-0.27937743190661735,-0.0,-0.0
0.02194952964782715,0.007094769401561507,-0.23700312809948798,-0.32295719844358217,-0.0,-0.0
0.024454832077026367,0.005560765206629625,-0.47870603494315844,-0.20259403372243767,-0.0,-0.0
0.02727532386779785,0.004793763109162796,-0.38873884184023666,-0.21348897535667888,-0.0,-0.0
0.030080318450927734,0.004026761011695967,-0.21014724956130237,-0.08482490272373511,-0.0,-0.0
0.032689809799194336,0.003643259962963441,-0.1806057831692982,-0.08741893644617349,-0.0,-0.0
0.03541064262390137,0.0032597589142309147,-0.14972152285038476,-0.28145265888456805,-0.0,-0.0
0.03789877891540527,0.0028762578654983884,-0.22357518883039518,-0.1823605706874183,-0.0,-0.0
0.0406193733215332,0.0024927568167640857,0.018127718013275285,-0.38780804150454173,-0.0,-0.0
0.04349112510681152,0.0021092557680315593,-0.1336079957274734,-0.17457846952010314,-0.0,-0.0
0.04580521583557129,0.0021092557680315593,0.0651255054551001,-0.21452658884565423,-0.0,-0.0
0.048943281173706055,0.0013422536705647303,-0.08661020828564858,-0.20570687418936373,-0.0,-0.0
0.052005767822265625,0.000958752621832204,0.1255512321660177,-0.23839169909208735,-0.0,-0.0
0.05497908592224121,0.000958752621832204,-0.1255512321660177,-0.12788586251621226,-0.0,-0.0
0.0579831600189209,0.0005752515730996777,-0.027527275501640247,-0.14760051880674396,-0.0,-0.0
0.06093621253967285,0.0005752515730996777,-0.08392462043183002,-0.011673151750972721,-0.0,-0.0
0.0637362003326416,0.0005752515730996777,-0.06915388723582794,-0.024124513618676957,-0.0,-0.0
0.0666658878326416,0.0005752515730996777,-0.10540932326237851,-0.12996108949416296,-0.0,-0.0
0.06950688362121582,0.00019175052436715134,-0.04364080262455161,-0.059922178988326635,-0.0,-0.0
0.07213568687438965,0.00019175052436715134,0.003356984817273201,-0.1247730220492862,-0.0,-0.0
0.07473087310791016,0.00019175052436715134,-0.12152285038528987,-0.04020752269779493,-0.0,-0.0
0.07776570320129395,0.00019175052436715134,0.03692683299000521,-0.13514915693903973,-0.0,-0.0
0.08086442947387695,-0.00019175052436715134,-0.08392462043183002,-0.007522697795071309,-0.0,-0.0
0.08353829383850098,0.00019175052436715134,-0.06915388723582794,0.049546044098573105,-0.0,-0.0
0.08645391464233398,0.00019175052436715134,-0.024841687647821686,0.039169909208819575,-0.0,-0.0
0.08946371078491211,-0.00019175052436715134,0.030212863355458808,-0.07859922178988299,-0.0,-0.0
0.09242796897888184,-0.00019175052436715134,-0.03692683299000521,-0.07029831387808017,-0.0,-0.0
0.09522676467895508,-0.00019175052436715134,0.07318226901655578,-0.07081712062256784,-0.0,-0.0
0.09775686264038086,-0.00019175052436715134,-0.10675211718928779,0.040726329442282605,-0.0,-0.0
0.10054564476013184,-0.00019175052436715134,0.10272373540855995,0.03968871595330725,-0.0,-0.0
0.10374951362609863,-0.00019175052436715134,0.008728160524910322,-0.17405966277561546,-0.0,-0.0
0.1067650318145752,-0.00019175052436715134,-0.0718394750896465,0.027237354085603016,-0.0,-0.0
0.10976648330688477,-0.00019175052436715134,0.057068741893644415,-0.1994811932555116,-0.0,-0.0
0.11246204376220703,-0.00019175052436715134,-0.053040360112916574,0.16627756160830032,-0.0,-0.0
0.11532211303710938,-0.00019175052436715134,0.16583504997329612,-0.04591439688715937,-0.0,-0.0
0.11815023422241211,-0.00019175052436715134,0.062439917601281536,-0.09312581063553793,-0.0,-0.0
0.12121748924255371,-0.00019175052436715134,-0.06781109330891866,-0.17924773022049223,-0.0,-0.0
0.12395429611206055,-0.00019175052436715134,-0.09332417792019498,-0.15382619974059608,-0.0,-0.0
0.12694478034973145,-0.00019175052436715134,-0.003356984817273201,0.09520103761348864,-0.0,-0.0
0.12962841987609863,-0.00019175052436715134,0.014099336232547444,-0.00596627756160828,-0.0,-0.0
0.1328413486480713,-0.00019175052436715134,-0.03826962691691449,-0.036057068741893517,-0.0,-0.0
0.13599133491516113,-0.00019175052436715134,-0.015442130159456724,0.005447470817120603,-0.0,-0.0
0.13882112503051758,-0.00019175052436715134,-0.0020141908903639205,0.027237354085603016,-0.0,-0.0
0.1419074535369873,-0.00019175052436715134,-0.020813305867093845,-0.1003891050583654,-0.0,-0.0
0.14471864700317383,-0.00019175052436715134,0.007385366598001042,-0.028793774319066046,-0.0,-0.0
0.14775919914245605,-0.00019175052436715134,-0.07989623865110218,-0.12788586251621226,-0.0,-0.0
0.1507561206817627,-0.00019175052436715134,-0.03961242084382377,-0.04487678339818402,-0.0,-0.0
0.1538991928100586,-0.00019175052436715134,0.07721065079728362,-0.1885862516212704,-0.0,-0.0
0.15660309791564941,-0.00019175052436715134,-0.04364080262455161,-0.015823605706874133,-0.0,-0.0
0.15976357460021973,-0.00019175052436715134,0.13226520180056411,-0.0983138780804147,-0.0,-0.0
0.16283750534057617,-0.00019175052436715134,-0.0986953536278321,-0.11958495460440943,-0.0,-0.0
0.1653885841369629,-0.00019175052436715134,0.014099336232547444,-0.05369649805447452,-0.0,-0.0
0.16770076751708984,-0.00019175052436715134,-0.058411535820553695,-0.315175097276267,-0.0,-0.0
0.17023587226867676,-0.00019175052436715134,-0.1255512321660177,-0.09623865110246399,-0.0,-0.0
0.17273545265197754,-0.00019175052436715134,0.018127718013275285,0.0023346303501945442,-0.0,-0.0
0.17539286613464355,-0.00019175052436715134,0.11078049897001563,-0.1621271076523989,-0.0,-0.0
0.17805719375610352,-0.00019175052436715134,0.03692683299000521,-0.06407263294422805,-0.0,-0.0
0.18070507049560547,-0.00019175052436715134,-0.07721065079728362,-0.1647211413748373,-0.0,-0.0
0.18344449996948242,-0.00019175052436715134,0.04229800869764233,-0.1756160830090785,-0.0,-0.0
0.1860060691833496,-0.00019175052436715134,-0.09063859006637642,-0.26536964980544653,-0.0,-0.0
0.18869757652282715,-0.00019175052436715134,-0.13226520180056411,-0.061478599221789665,-0.0,-0.0
0.19144296646118164,-0.00019175052436715134,-0.10003814755474139,-0.11232166018158196,-0.0,-0.0
0.19411373138427734,-0.00019175052436715134,-0.019470511940184565,0.03450064850843049,-0.0,-0.0
0.19658803939819336,-0.00019175052436715134,0.09735255970092282,-0.04487678339818402,-0.0,-0.0
0.19931507110595703,-0.00019175052436715134,-0.08392462043183002,0.037613488975356546,-0.0,-0.0
0.20212674140930176,-0.00019175052436715134,-0.020813305867093845,-0.2508430609597916,-0.0,-0.0
0.20470690727233887,-0.00019175052436715134,0.04766918440527945,-0.15953307392996052,-0.0,-0.0
0.20763707160949707,0.00019175052436715134,-0.04364080262455161,-0.1092088197146559,-0.0,-0.0
0.2101597785949707,0.00019175052436715134,0.06646829938200938,-0.07237354085603087,-0.0,-0.0
0.21277475357055664,-0.00019175052436715134,0.0020141908903639205,-0.3027237354085628,-0.0,-0.0
0.2154242992401123,0.00019175052436715134,0.0986953536278321,0.04435797665369634,-0.0,-0.0
0.2180309295654297,-0.00019175052436715134,-0.023498893720912406,0.09312581063553793,-0.0,-0.0
0.22014260292053223,0.00019175052436715134,-0.04498359655146089,-0.2762645914396913,-0.0,-0.0
0.2225780487060547,0.00019175052436715134,-0.057068741893644415,0.03294422827496746,-0.0,-0.0
0.22533345222473145,-0.00019175052436715134,-0.011413748378728883,-0.09208819714656258,-0.0,-0.0
0.22768950462341309,-0.00019175052436715134,0.05169756618600729,-0.1621271076523989,-0.0,-0.0
0.23015117645263672,0.00019175052436715134,0.04766918440527945,-0.16523994811932496,-0.0,-0.0
0.23247408866882324,0.00019175052436715134,0.03826962691691449,-0.07237354085603087,-0.0,-0.0
0.2347397804260254,0.00019175052436715134,0.03961242084382377,-0.21867704280155564,-0.0,-0.0
0.23755741119384766,0.00019175052436715134,0.13226520180056411,-0.03450064850843049,-0.0,-0.0
0.24028372764587402,-0.00019175052436715134,-0.10003814755474139,0.018936446173800192,-0.0,-0.0
0.242995023727417,0.00019175052436715134,-0.04632639047837017,-0.11750972762645873,-0.0,-0.0
0.2457737922668457,0.00019175052436715134,0.03961242084382377,-0.18806744487678273,-0.0,-0.0
0.2484757900238037,0.00019175052436715134,0.10943770504310635,-0.13722438391699043,-0.0,-0.0
0.251312255859375,-0.00019175052436715134,-0.12286564431219915,0.05473411154344987,-0.0,-0.0
0.25421857833862305,0.00019175052436715134,-0.008728160524910322,-0.27003891050583917,-0.0,-0.0
0.257307767868042,0.00019175052436715134,-0.0919813839932857,-0.28352788586251876,-0.0,-0.0
0.26036930084228516,0.00019175052436715134,0.0986953536278321,-0.10090791180285308,-0.0,-0.0
0.26302623748779297,0.00019175052436715134,0.07586785687037434,0.04332036316472099,-0.0,-0.0
0.26606321334838867,-0.00019175052436715134,-0.020813305867093845,-0.1999999999999993,-0.0,-0.0
0.26914095878601074,0.00019175052436715134,0.062439917601281536,-0.04487678339818402,-0.0,-0.0
0.27220630645751953,0.00019175052436715134,0.03155565728236809,-0.11076523994811893,-0.0,-0.0
0.27502965927124023,0.00019175052436715134,0.05169756618600729,0.028793774319066046,-0.0,-0.0
0.2779407501220703,0.00019175052436715134,-0.03424124513618665,-0.2352788586251613,-0.0,-0.0
0.28091883659362793,0.00019175052436715134,0.022156099794003126,-0.3291828793774343,-0.0,-0.0
0.28385066986083984,0.00019175052436715134,-0.010070954451819603,-0.12062256809338479,-0.0,-0.0
0.28702235221862793,0.00019175052436715134,0.06646829938200938,-0.25395590142671765,-0.0,-0.0
0.2902657985687256,0.00019175052436715134,-0.010070954451819603,-0.19221789883268414,-0.0,-0.0
0.2942657470703125,0.00019175052436715134,0.1336079957274734,-0.09468223086900096,-0.0,-0.0
0.2985420227050781,0.00019175052436715134,0.03155565728236809,-0.23476005188067361,-0.0,-0.0
0.3029932975769043,0.00019175052436715134,-0.03692683299000521,-0.24306095979247644,-0.0,-0.0
0.307647705078125,0.00019175052436715134,0.07318226901655578,-0.30531776913100117,-0.0,-0.0
0.31066203117370605,0.00019175052436715134,0.0852674143587393,-0.16160830090791123,-0.0,-0.0
0.3134744167327881,0.00019175052436715134,-0.08392462043183002,-0.13514915693903973,-0.0,-0.0
0.3160135746002197,0.00019175052436715134,-0.04229800869764233,-0.11076523994811893,-0.0,-0.0
0.32002782821655273,0.00019175052436715134,0.0651255054551001,-0.22075226977950635,-0.0,-0.0
0.32323169708251953,0.00019175052436715134,-0.030212863355458808,-0.2544747081712053,-0.0,-0.0
0.32628297805786133,0.00019175052436715134,0.026184481574730967,-0.16731517509727567,-0.0,-0.0
0.33034396171569824,0.00019175052436715134,-0.12018005645838059,-0.1642023346303496,-0.0,-0.0
0.33521413803100586,0.00019175052436715134,0.14435034714274764,-0.22127107652399403,-0.0,-0.0
0.33884406089782715,0.00019175052436715134,-0.028870069428549527,-0.2529182879377423,-0.0,-0.0
0.3418116569519043,0.00019175052436715134,-0.11212329289692491,-0.2591439688715944,-0.0,-0.0
0.34464406967163086,0.00019175052436715134,-0.007385366598001042,-0.15434500648508376,-0.0,-0.0
0.34740686416625977,0.00019175052436715134,0.030212863355458808,-0.2264591439688708,-0.0,-0.0
0.3512899875640869,0.00019175052436715134,0.061097123674372256,0.06770428015564178,-0.0,-0.0
0.35418105125427246,0.00019175052436715134,-0.04095521477073305,-0.18132295719844294,-0.0,-0.0
0.35686182975769043,0.00019175052436715134,0.05035477225909801,-0.41945525291829,-0.0,-0.0
0.359821081161499,0.00019175052436715134,0.008728160524910322,0.008560311284046662,-0.0,-0.0
0.36386704444885254,0.00019175052436715134,-0.06646829938200938,-0.21608300907911726,-0.0,-0.0
0.3672003746032715,0.00019175052436715134,0.014099336232547444,-0.14811932555123164,-0.0,-0.0
0.3698904514312744,0.00019175052436715134,0.007385366598001042,-0.27003891050583917,-0.0,-0.0
0.3740525245666504,0.00019175052436715134,-0.015442130159456724,-0.15953307392996052,-0.0,-0.0
0.37717342376708984,0.00019175052436715134,0.0986953536278321,-0.12944228274967529,-0.0,-0.0
0.37966299057006836,0.00019175052436715134,0.022156099794003126,-0.09416342412451328,-0.0,-0.0
0.38216400146484375,0.00019175052436715134,-0.08795300221255786,-0.21141374837872817,-0.0,-0.0
0.3858354091644287,0.00019175052436715134,-0.06646829938200938,-0.2083009079118021,-0.0,-0.0
0.38928842544555664,-0.00019175052436715134,-0.04766918440527945,-0.0298313878080414,-0.0,-0.0
0.3916018009185791,0.00019175052436715134,0.007385366598001042,-0.06926070038910481,-0.0,-0.0
0.39484429359436035,0.00019175052436715134,0.04632639047837017,-0.16160830090791123,-0.0,-0.0
0.39763450622558594,-0.00019175052436715134,0.007385366598001042,-0.12840466926069993,-0.0,-0.0
0.40054988861083984,0.00019175052436715134,0.054383154039825854,-0.3494163424124537,-0.0,-0.0
0.40316295623779297,0.00019175052436715134,0.126894026092927,-0.13307392996108902,-0.0,-0.0
0.40654945373535156,-0.00019175052436715134,-0.05035477225909801,-0.29286640726329694,-0.0,-0.0
0.4094264507293701,0.00019175052436715134,-0.04364080262455161,-0.17717250324254152,-0.0,-0.0
0.41198182106018066,-0.00019175052436715134,-0.06646829938200938,-0.09416342412451328,-0.0,-0.0
0.4157674312591553,0.00019175052436715134,-0.07721065079728362,-0.18547341115434435,-0.0,-0.0
0.4204683303833008,0.00019175052436715134,0.014099336232547444,-0.2285343709468215,-0.0,-0.0
0.42493772506713867,0.00019175052436715134,0.0006713969634546402,-0.15071335927367002,-0.0,-0.0
0.4286167621612549,0.00019175052436715134,-0.16449225604638684,-0.1730220492866401,-0.0,-0.0
0.4332723617553711,0.00019175052436715134,-0.04095521477073305,-0.21141374837872817,-0.0,-0.0
0.43761491775512695,0.00019175052436715134,0.004699778744182481,-0.13307392996108902,-0.0,-0.0
0.44214940071105957,0.00019175052436715134,-0.06646829938200938,-0.23787289234759967,-0.0,-0.0
0.4455687999725342,0.00019175052436715134,0.06915388723582794,-0.15278858625162073,-0.0,-0.0
0.44952821731567383,0.0005752515730996777,0.06781109330891866,-0.3156939040207547,-0.0,-0.0
0.45458245277404785,0.0005752515730996777,-0.07721065079728362,-0.4817120622568112,-0.0,-0.0
0.45888614654541016,0.0005752515730996777,-0.059754329747462975,-0.31673151750973005,-0.0,-0.0
0.46318960189819336,0.0005752515730996777,-0.022156099794003126,-0.36809338521401,-0.0,-0.0
0.467266321182251,0.0005752515730996777,0.10943770504310635,-0.28819714656290785,-0.0,-0.0
0.47086644172668457,0.0005752515730996777,0.10003814755474139,-0.40752269779507344,-0.0,-0.0
0.474165678024292,0.0005752515730996777,0.13897917143511052,-0.3271076523994836,-0.0,-0.0
0.4763827323913574,0.0005752515730996777,-0.023498893720912406,-0.28404669260700643,-0.0,-0.0
0.47876763343811035,0.0005752515730996777,0.12152285038528987,-0.3769130998703005,-0.0,-0.0
0.48119425773620605,0.0005752515730996777,-0.015442130159456724,-0.38261997405966497,-0.0,-0.0
0.48482608795166016,0.0005752515730996777,0.018127718013275285,-0.2918287937743216,-0.0,-0.0
0.4882199764251709,0.0005752515730996777,0.07989623865110218,-0.2555123216601807,-0.0,-0.0
0.4908254146575928,0.0005752515730996777,0.08123903257801146,-0.33437094682231105,-0.0,-0.0
0.4949309825897217,0.0005752515730996777,-0.19269092851148173,-0.39662775616083223,-0.0,-0.0
0.49843573570251465,0.0005752515730996777,0.007385366598001042,-0.3748378728923498,-0.0,-0.0
0.5008189678192139,0.0005752515730996777,0.014099336232547444,-0.19429312581063485,-0.0,-0.0
0.5035161972045898,0.0005752515730996777,-0.09466697184710426,-0.24046692607003806,-0.0,-0.0
0.5067746639251709,0.0005752515730996777,-0.0020141908903639205,-0.3732814526588868,-0.0,-0.0
0.5102591514587402,0.0005752515730996777,0.0060425726710917615,-0.2809338521400804,-0.0,-0.0
0.5135056972503662,0.0005752515730996777,-0.04498359655146089,-0.12010376134889711,-0.0,-0.0
0.5172514915466309,0.0005752515730996777,-0.21417563134203021,-0.2845654993514941,-0.0,-0.0
0.5211360454559326,0.0005752515730996777,0.08661020828564858,-0.3405966277561632,-0.0,-0.0
0.5256083011627197,0.0005752515730996777,0.061097123674372256,-0.18028534370946758,-0.0,-0.0
0.5297362804412842,0.0005752515730996777,-0.10138094148165067,-0.18339818417639364,-0.0,-0.0
0.5337870121002197,0.000958752621832204,0.04364080262455161,-0.29286640726329694,-0.0,-0.0
0.5388758182525635,0.0005752515730996777,0.062439917601281536,-0.29442282749675996,-0.0,-0.0
0.5431265830993652,0.0005752515730996777,-0.04364080262455161,-0.4038910505836597,-0.0,-0.0
0.5465707778930664,0.0005752515730996777,0.03558403906309593,-0.4926070038910524,-0.0,-0.0
0.5507736206054688,0.0005752515730996777,-0.05169756618600729,-0.26796368352788846,-0.0,-0.0
0.5547730922698975,0.0005752515730996777,-0.022156099794003126,-0.4542153047989643,-0.0,-0.0
0.5581259727478027,0.0005752515730996777,-0.12152285038528987,-0.2217898832684817,-0.0,-0.0
0.5628724098205566,0.0005752515730996777,-0.0060425726710917615,-0.28145265888456805,-0.0,-0.0
0.5656976699829102,0.0005752515730996777,0.03155565728236809,-0.4282749675745805,-0.0,-0.0
0.5686390399932861,0.0005752515730996777,0.030212863355458808,-0.4796368352788605,-0.0,-0.0
0.5719695091247559,0.0005752515730996777,0.020813305867093845,-0.49312581063554006,-0.0,-0.0
0.574704647064209,0.0005752515730996777,-0.126894026092927,-0.38106355382620194,-0.0,-0.0
0.5769741535186768,0.0005752515730996777,-0.059754329747462975,-0.41426718547341324,-0.0,-0.0
0.5797202587127686,0.000958752621832204,0.1470359349965662,-0.5481193255512338,-0.0,-0.0
0.5825893878936768,0.0005752515730996777,0.0718394750896465,-0.28767833981842017,-0.0,-0.0
0.5850589275360107,0.000958752621832204,0.0651255054551001,-0.45629053177691503,-0.0,-0.0
0.5877430438995361,0.0005752515730996777,-0.054383154039825854,-0.38988326848249244,-0.0,-0.0
0.5905253887176514,0.0005752515730996777,0.03692683299000521,-0.5180285343709485,-0.0,-0.0
0.5935478210449219,0.0005752515730996777,-0.008728160524910322,-0.30376134889753814,-0.0,-0.0
0.5963387489318848,0.000958752621832204,0.08661020828564858,-0.31258106355382864,-0.0,-0.0
0.598928689956665,0.0005752515730996777,0.0919813839932857,-0.2985732814526614,-0.0,-0.0
0.6016280651092529,0.000958752621832204,0.007385366598001042,-0.506095979247732,-0.0,-0.0
0.6039443016052246,0.000958752621832204,0.0020141908903639205,-0.45369649805447665,-0.0,-0.0
0.606795072555542,0.000958752621832204,-0.04364080262455161,-0.47548638132295906,-0.0,-0.0
0.6093556880950928,0.0005752515730996777,-0.11212329289692491,-0.2695201037613515,-0.0,-0.0
0.6121861934661865,0.000958752621832204,0.0060425726710917615,-0.43138780804150656,-0.0,-0.0
0.6149358749389648,0.000958752621832204,0.08392462043183002,-0.3706874189364484,-0.0,-0.0
0.6173615455627441,0.000958752621832204,-0.03424124513618665,-0.33437094682231105,-0.0,-0.0
0.6200337409973145,0.000958752621832204,0.010070954451819603,-0.5112840466926087,-0.0,-0.0
0.6222898960113525,0.0005752515730996777,-0.14435034714274764,-0.44902723735408756,-0.0,-0.0
0.6250717639923096,0.000958752621832204,0.14435034714274764,-0.3556420233463058,-0.0,-0.0
0.6279594898223877,0.000958752621832204,-0.012756542305638163,-0.41219195849546253,-0.0,-0.0
0.630852222442627,0.000958752621832204,0.03826962691691449,-0.45992217898832877,-0.0,-0.0
0.6334116458892822,0.000958752621832204,0.07318226901655578,-0.42049286640726535,-0.0,-0.0
0.6381561756134033,0.000958752621832204,-0.1819485770962075,-0.42256809338521606,-0.0,-0.0
0.6428837776184082,0.000958752621832204,-0.028870069428549527,-0.39455252918288153,-0.0,-0.0
0.6470553874969482,0.000958752621832204,0.15643549248493116,-0.30168612191958744,-0.0,-0.0
