time,position,velocity,torque,position_ref,velocity_ref
4.76837158203125e-07,0.016298794571152797,-0.07721065079728362,0.005447470817120603,0.0,0.0
0.002984285354614258,0.015148291424953442,-0.5686732280460802,-0.9107652399481196,0.0,0.0
0.006047487258911133,0.013230786181289034,-0.5109330891889812,-0.8101167315175104,0.0,0.0
0.008826971054077148,0.012080283035089678,-0.4464789806973357,-1.2386511024643312,0.0,0.0
0.011217355728149414,0.010929779888890323,-0.6290989547569978,-0.9351491569390404,0.0,0.0
0.01325845718383789,0.009395775693958441,-0.8587167162584919,-0.5870298313878095,0.0,0.0
0.015906810760498047,0.00786177149902656,-0.5095902952620719,-0.26640726329442543,0.0,0.0
0.018430233001708984,0.006327767304094678,-0.3914244296940552,-0.10142671854734076,0.0,0.0
0.021340608596801758,0.005177264157895323,-0.36188296330205105,0.0651102464332034,0.0,0.0
0.02349853515625,0.00441026206043027,-0.22626077668421374,0.0012970168612191912,0.0,0.0
0.025696277618408203,0.003643259962963441,-0.27460135805294783,-0.06095979247730199,0.0,0.0
0.028500080108642578,0.0028762578654983884,-0.2088044556343931,-0.1424124513618672,0.0,0.0
0.031126022338867188,0.0024927568167640857,-0.23700312809948798,-0.12010376134889711,0.0,0.0
0.033777713775634766,0.0024927568167640857,-0.11212329289692491,-0.17717250324254152,0.0,0.0
0.035988807678222656,0.0021092557680315593,-0.12420843823910843,-0.00025940337224383825,0.0,0.0
0.038361310958862305,0.001725754719299033,-0.21954680704966734,-0.3571984435797688,0.0,0.0
0.04111886024475098,0.001725754719299033,0.04095521477073305,-0.1823605706874183,0.0,0.0
0.04375505447387695,0.0013422536705647303,-0.13897917143511052,-0.22282749675745706,0.0,0.0
0.04631304740905762,0.001725754719299033,-0.06646829938200938,-0.3618677042801579,0.0,0.0
0.048401594161987305,0.001725754719299033,-0.12018005645838059,-0.4173800259403393,0.0,0.0
0.05078768730163574,0.001725754719299033,0.12823682001983627,-0.32295719844358217,0.0,0.0
0.05354046821594238,0.0013422536705647303,0.015442130159456724,-0.45369649805447665,0.0,0.0
0.05625748634338379,0.0013422536705647303,-0.012756542305638163,-0.2757457846952036,0.0,0.0
0.0588686466217041,0.000958752621832204,-0.19671931029220957,-0.3354085603112864,0.0,0.0
0.060950279235839844,0.000958752621832204,-0.10138094148165067,-0.278339818417642,0.0,0.0
0.06376004219055176,0.0005752515730996777,-0.16852063782711468,-0.0630350194552527,0.0,0.0
0.06651759147644043,0.0005752515730996777,-0.12957961394674555,-0.1424124513618672,0.0,0.0
0.0693354606628418,0.0005752515730996777,-0.12018005645838059,-0.2482490272373532,0.0,0.0
0.07240557670593262,0.0005752515730996777,0.10406652933546923,-0.18599221789883202,0.0,0.0
0.07541036605834961,0.0005752515730996777,0.05035477225909801,-0.0007782101167315147,0.0,0.0
0.07799077033996582,0.0005752515730996777,-0.12286564431219915,-0.26018158236056976,0.0,0.0
0.08102846145629883,0.00019175052436715134,-0.03155565728236809,-0.40337224383917203,0.0,0.0
0.08375239372253418,0.00019175052436715134,0.09600976577401354,-0.07081712062256784,0.0,0.0
0.08672690391540527,0.00019175052436715134,0.03289845120927737,0.04176394293125796,0.0,0.0
0.08975625038146973,0.00019175052436715134,-0.0852674143587393,-0.31465629053177935,0.0,0.0
0.09270095825195312,0.0005752515730996777,0.12286564431219915,-0.297535667963686,0.0,0.0
0.09523725509643555,0.00019175052436715134,0.1403219653620198,-0.19014267185473344,0.0,0.0
0.0979926586151123,0.00019175052436715134,-0.15643549248493116,0.06199740596627734,0.0,0.0
0.10088706016540527,0.00019175052436715134,-0.13226520180056411,-0.3110246433203656,0.0,0.0
0.10386967658996582,0.00019175052436715134,-0.010070954451819603,-0.4189364461738023,0.0,0.0
0.10647320747375488,0.00019175052436715134,0.23700312809948798,-0.027237354085603016,0.0,0.0
0.10879874229431152,0.00019175052436715134,0.004699778744182481,-0.25810635538261906,0.0,0.0
0.11159920692443848,0.00019175052436715134,-0.05169756618600729,-0.3727626459143991,0.0,0.0
0.11430883407592773,0.0005752515730996777,-0.014099336232547444,-0.4853437094682249,0.0,0.0
0.11738991737365723,0.000958752621832204,0.023498893720912406,-0.4832684824902742,0.0,0.0
0.12011289596557617,0.000958752621832204,0.0919813839932857,-0.47548638132295906,0.0,0.0
0.12317705154418945,0.000958752621832204,0.027527275501640247,-0.43553826199740797,0.0,0.0
0.12590599060058594,0.000958752621832204,-0.0006713969634546402,-0.16627756160830032,0.0,0.0
0.12891840934753418,0.0005752515730996777,0.10406652933546923,-0.12166018158236014,0.0,0.0
0.13162922859191895,0.0005752515730996777,-0.05035477225909801,-0.28612191958495714,0.0,0.0
0.13447809219360352,0.0005752515730996777,0.04901197833218873,-0.41374837872892556,0.0,0.0
0.1372673511505127,0.0005752515730996777,-0.053040360112916574,-0.21660181582360494,0.0,0.0
0.14028215408325195,0.00019175052436715134,-0.057068741893644415,-0.1709468223086894,0.0,0.0
0.14320015907287598,0.0005752515730996777,-0.06646829938200938,-0.14811932555123164,0.0,0.0
0.1457538604736328,0.0005752515730996777,0.07452506294346506,-0.2088197146562898,0.0,0.0
0.14824414253234863,0.0005752515730996777,0.062439917601281536,-0.13618677042801508,0.0,0.0
0.15062737464904785,0.0005752515730996777,-0.03289845120927737,-0.2176394293125803,0.0,0.0
0.15297293663024902,0.0005752515730996777,-0.08258182650492074,-0.19221789883268414,0.0,0.0
0.15542268753051758,0.0005752515730996777,0.2571450370031272,-0.24980544747081623,0.0,0.0
0.15792322158813477,0.00019175052436715134,-0.061097123674372256,-0.24357976653696412,0.0,0.0
0.16064786911010742,0.0005752515730996777,0.03558403906309593,-0.32814526588845894,0.0,0.0
0.16301274299621582,0.00019175052436715134,-0.015442130159456724,-0.3291828793774343,0.0,0.0
0.1650547981262207,0.00019175052436715134,-0.07318226901655578,-0.10869001297016823,0.0,0.0
0.16717076301574707,0.0005752515730996777,0.20343327992675597,-0.20985732814526514,0.0,0.0
0.1699974536895752,0.00019175052436715134,-0.19806210421911885,-0.30531776913100117,0.0,0.0
0.1728215217590332,0.0005752515730996777,0.15240711070420332,-0.4044098573281474,0.0,0.0
0.17545080184936523,0.00019175052436715134,-0.15240711070420332,-0.13722438391699043,0.0,0.0
0.17789840698242188,0.00019175052436715134,0.19269092851148173,-0.1289234760051876,0.0,0.0
0.18047308921813965,0.00019175052436715134,-0.09600976577401354,-0.18702983138780738,0.0,0.0
0.18397188186645508,0.00019175052436715134,0.030212863355458808,-0.07341115434500622,0.0,0.0
0.18721342086791992,0.00019175052436715134,-0.04901197833218873,-0.11128404669260661,0.0,0.0
0.190047025680542,0.00019175052436715134,0.09063859006637642,-0.13099870298313832,0.0,0.0
0.19344091415405273,0.00019175052436715134,-0.10943770504310635,-0.2217898832684817,0.0,0.0
0.19633173942565918,0.00019175052436715134,0.11078049897001563,-0.313618677042804,0.0,0.0
0.19907021522521973,0.00019175052436715134,0.126894026092927,-0.25603112840466835,0.0,0.0
0.20190715789794922,0.00019175052436715134,-0.06781109330891866,-0.2710765239948145,0.0,0.0
0.20481300354003906,0.00019175052436715134,0.05035477225909801,0.08378728923475975,0.0,0.0
0.20789361000061035,0.00019175052436715134,-0.14435034714274764,-0.2892347600518832,0.0,0.0
0.21068811416625977,0.00019175052436715134,0.10406652933546923,-0.36083009079118256,0.0,0.0
0.21347689628601074,0.0005752515730996777,0.07049668116273722,-0.26536964980544653,0.0,0.0
0.21643877029418945,0.00019175052436715134,0.07989623865110218,-0.23372243839169826,0.0,0.0
0.21941471099853516,0.00019175052436715134,-0.16986343175402396,-0.16264591439688658,0.0,0.0
0.22228622436523438,0.0005752515730996777,0.27997253376058495,-0.015304798962386457,0.0,0.0
0.22514557838439941,0.0005752515730996777,0.06781109330891866,-0.29234760051880926,0.0,0.0
0.2281639575958252,0.00019175052436715134,0.058411535820553695,-0.15745784695200982,0.0,0.0
0.23108220100402832,0.00019175052436715134,0.08661020828564858,-0.1818417639429306,0.0,0.0
0.23409342765808105,0.00019175052436715134,-0.03558403906309593,-0.20155642023346232,0.0,0.0
0.2371513843536377,0.00019175052436715134,0.022156099794003126,-0.1730220492866401,0.0,0.0
0.24003148078918457,0.00019175052436715134,0.07049668116273722,-0.166796368352788,0.0,0.0
0.24311304092407227,0.00019175052436715134,-0.0718394750896465,-0.09571984435797631,0.0,0.0
0.24604368209838867,0.00019175052436715134,0.25177386129549006,-0.07652399481193228,0.0,0.0
0.24914121627807617,0.00019175052436715134,-0.18329137102311677,-0.1579766536964975,0.0,0.0
0.25220584869384766,0.00019175052436715134,0.06378271152819082,-0.05577172503242522,0.0,0.0
0.2546882629394531,0.00019175052436715134,0.11346608682383419,-0.4350194552529203,0.0,0.0
0.25760746002197266,0.00019175052436715134,-0.03424124513618665,-0.22542153047989544,0.0,0.0
0.2602992057800293,0.00019175052436715134,-0.12286564431219915,-0.16835278858625102,0.0,0.0
0.26331543922424316,0.00019175052436715134,0.12823682001983627,-0.1553826199740591,0.0,0.0
0.26596784591674805,0.00019175052436715134,-0.07721065079728362,-0.31932555123216844,0.0,0.0
0.26920032501220703,0.00019175052436715134,-0.059754329747462975,-0.2741893644617406,0.0,0.0
0.2736794948577881,0.00019175052436715134,0.12823682001983627,-0.16835278858625102,0.0,0.0
0.2775764465332031,0.00019175052436715134,0.0060425726710917615,-0.21919584954604332,0.0,0.0
0.2806532382965088,0.00019175052436715134,0.06646829938200938,-0.24254215304798876,0.0,0.0
0.2853219509124756,0.0005752515730996777,0.14972152285038476,-0.20466926070038838,0.0,0.0
0.289945125579834,0.00019175052436715134,0.018127718013275285,-0.31258106355382864,0.0,0.0
0.29421401023864746,0.0005752515730996777,0.07989623865110218,-0.1621271076523989,0.0,0.0
0.29751038551330566,0.00019175052436715134,-0.04095521477073305,-0.2933852140077846,0.0,0.0
0.3004035949707031,0.00019175052436715134,-0.1671778439002054,-0.40025940337224597,0.0,0.0
0.3032395839691162,0.0005752515730996777,0.10943770504310635,-0.2508430609597916,0.0,0.0
0.3062169551849365,0.0005752515730996777,0.11480888075074347,-0.3732814526588868,0.0,0.0
0.31019091606140137,0.00019175052436715134,-0.008728160524910322,-0.35667963683528114,0.0,0.0
0.3148345947265625,0.0005752515730996777,0.07049668116273722,-0.3592736705577195,0.0,0.0
0.3195991516113281,0.0005752515730996777,-0.10809491111619707,-0.297535667963686,0.0,0.0
0.3224194049835205,0.0005752515730996777,-0.03424124513618665,-0.22230869001296938,0.0,0.0
0.32672548294067383,0.0005752515730996777,0.11212329289692491,-0.3753566796368375,0.0,0.0
0.3317229747772217,0.0005752515730996777,0.059754329747462975,-0.1776913099870292,0.0,0.0
0.336230993270874,0.0005752515730996777,0.020813305867093845,-0.23476005188067361,0.0,0.0
0.3408010005950928,0.00019175052436715134,-0.09063859006637642,-0.2285343709468215,0.0,0.0
0.34488725662231445,0.00019175052436715134,-0.14166475928892908,-0.16316472114137426,0.0,0.0
0.3494377136230469,0.0005752515730996777,0.15106431677729404,-0.05473411154344987,0.0,0.0
0.3528146743774414,0.00019175052436715134,-0.11346608682383419,-0.1444876783398179,0.0,0.0
0.35610508918762207,0.00019175052436715134,0.08392462043183002,-0.05940337224383896,0.0,0.0
0.3603475093841553,0.00019175052436715134,0.026184481574730967,-0.39870298313878294,0.0,0.0
0.36408281326293945,0.00019175052436715134,0.007385366598001042,-0.3219195849546068,0.0,0.0
0.367870569229126,0.00019175052436715134,0.03289845120927737,-0.3333333333333357,0.0,0.0
0.3719015121459961,0.00019175052436715134,0.05035477225909801,-0.010635538261997368,0.0,0.0
0.3761711120605469,0.00019175052436715134,0.0919813839932857,-0.2690012970168638,0.0,0.0
0.3804776668548584,0.00019175052436715134,-0.03826962691691449,-0.2440985732814518,0.0,0.0
0.3851947784423828,0.00019175052436715134,-0.03558403906309593,-0.3950713359273692,0.0,0.0
0.389819860458374,0.00019175052436715134,0.020813305867093845,-0.1559014267185468,0.0,0.0
0.39370203018188477,0.00019175052436715134,-0.016784924086366004,-0.13722438391699043,0.0,0.0
0.3969454765319824,0.00019175052436715134,0.016784924086366004,-0.14967574578469467,0.0,0.0
0.40166401863098145,0.00019175052436715134,0.061097123674372256,-0.02049286640726322,0.0,0.0
0.406543493270874,0.00019175052436715134,-0.07586785687037434,-0.3042801556420258,0.0,0.0
0.4100465774536133,0.00019175052436715134,-0.08929579613946714,-0.278339818417642,0.0,0.0
0.4141533374786377,0.00019175052436715134,-0.17120622568093324,-0.1377431906614781,0.0,0.0
0.4189441204071045,0.00019175052436715134,0.059754329747462975,-0.17821011673151688,0.0,0.0
0.42241811752319336,0.00019175052436715134,0.07049668116273722,-0.2326848249027229,0.0,0.0
0.4252948760986328,0.00019175052436715134,0.12152285038528987,-0.1600518806744482,0.0,0.0
0.4282364845275879,0.00019175052436715134,-0.23834592202639726,-0.18599221789883202,0.0,0.0
0.4310264587402344,0.0005752515730996777,0.11480888075074347,-0.29909208819714905,0.0,0.0
0.4339115619659424,0.0005752515730996777,0.1537499046311126,-0.2394293125810627,0.0,0.0
0.4367091655731201,0.00019175052436715134,-0.13897917143511052,-0.38728923476005406,0.0,0.0
0.43906116485595703,0.0005752515730996777,-0.14972152285038476,-0.2985732814526614,0.0,0.0
0.4418931007385254,0.00019175052436715134,-0.003356984817273201,-0.4236057068741914,0.0,0.0
0.4448387622833252,0.0005752515730996777,-0.008728160524910322,-0.2669260700389131,0.0,0.0
0.44808125495910645,0.00019175052436715134,0.0006713969634546402,-0.16057068741893588,0.0,0.0
0.45162534713745117,0.0005752515730996777,0.018127718013275285,-0.23631647211413664,0.0,0.0
0.4555091857910156,0.00019175052436715134,-0.07049668116273722,-0.12944228274967529,0.0,0.0
0.458782434463501,0.00019175052436715134,-0.08661020828564858,-0.0630350194552527,0.0,0.0
0.461275577545166,0.00019175052436715134,-0.020813305867093845,-0.34785992217899064,0.0,0.0
0.4637172222137451,0.00019175052436715134,-0.10003814755474139,-0.3115434500648533,0.0,0.0
0.4675304889678955,0.00019175052436715134,0.030212863355458808,-0.16523994811932496,0.0,0.0
0.470383882522583,0.00019175052436715134,0.015442130159456724,-0.1289234760051876,0.0,0.0
0.4728085994720459,0.00019175052436715134,0.05035477225909801,-0.26588845654993776,0.0,0.0
0.4756960868835449,0.00019175052436715134,-0.12420843823910843,-0.2461738002594025,0.0,0.0
0.478851318359375,0.00019175052436715134,-0.06646829938200938,-0.22438391699092008,0.0,0.0
0.48189592361450195,0.00019175052436715134,-0.21954680704966734,-0.05317769130998684,0.0,0.0
0.48442864418029785,0.00019175052436715134,-0.062439917601281536,-0.48690012970168794,0.0,0.0
0.48726606369018555,0.00019175052436715134,-0.14972152285038476,-0.38054474708171426,0.0,0.0
0.4913022518157959,0.00019175052436715134,-0.23431754024566942,-0.25862516212710673,0.0,0.0
0.494187593460083,0.00019175052436715134,-0.05169756618600729,-0.1003891050583654,0.0,0.0
0.49676513671875,0.00019175052436715134,-0.1470359349965662,-0.25343709468222997,0.0,0.0
0.500633955001831,0.00019175052436715134,-0.16583504997329612,-0.24928664072632856,0.0,0.0
0.5034515857696533,0.00019175052436715134,0.19000534065766317,-0.3727626459143991,0.0,0.0
0.5058634281158447,0.00019175052436715134,0.03155565728236809,0.10090791180285308,0.0,0.0
0.5079982280731201,0.00019175052436715134,-0.03289845120927737,-0.3846952010376157,0.0,0.0
0.5116996765136719,0.00019175052436715134,-0.06915388723582794,-0.0806744487678337,0.0,0.0
0.515113353729248,0.00019175052436715134,0.07721065079728362,-0.17924773022049223,0.0,0.0
0.5176177024841309,0.00019175052436715134,-0.020813305867093845,-0.017380025940337163,0.0,0.0
0.5210669040679932,0.00019175052436715134,-0.0986953536278321,-0.16264591439688658,0.0,0.0
0.5253345966339111,0.00019175052436715134,-0.07452506294346506,-0.16057068741893588,0.0,0.0
0.5281941890716553,0.00019175052436715134,0.04766918440527945,-0.18547341115434435,0.0,0.0
0.5313537120819092,-0.00019175052436715134,-0.14300755321583836,-0.11439688715953267,0.0,0.0
0.5350086688995361,0.00019175052436715134,-0.003356984817273201,-0.16057068741893588,0.0,0.0
0.5390782356262207,0.00019175052436715134,-0.03558403906309593,-0.24565499351491482,0.0,0.0
0.5413060188293457,0.00019175052436715134,0.0651255054551001,-0.26070038910505744,0.0,0.0
0.543999433517456,0.00019175052436715134,0.020813305867093845,-0.03242542153047978,0.0,0.0
0.5469224452972412,0.00019175052436715134,-0.15643549248493116,-0.2264591439688708,0.0,0.0
0.5494387149810791,0.00019175052436715134,-0.008728160524910322,-0.25810635538261906,0.0,0.0
0.552454948425293,0.00019175052436715134,-0.14166475928892908,-0.20726329442282676,0.0,0.0
0.5572600364685059,0.00019175052436715134,-0.024841687647821686,-0.14967574578469467,0.0,0.0
0.5620028972625732,0.00019175052436715134,0.11078049897001563,-0.1823605706874183,0.0,0.0
0.5676591396331787,0.00019175052436715134,-0.1470359349965662,-0.2440985732814518,0.0,0.0
0.5707664489746094,0.00019175052436715134,-0.03558403906309593,-0.2612191958495451,0.0,0.0
0.5735795497894287,0.00019175052436715134,-0.11346608682383419,-0.022568093385213928,0.0,0.0
0.5764977931976318,0.00019175052436715134,0.14569314106965692,-0.2088197146562898,0.0,0.0
0.579195499420166,0.00019175052436715134,0.10675211718928779,0.059922178988326635,0.0,0.0
0.5819931030273438,0.00019175052436715134,-0.15509269855802188,-0.3686121919584977,0.0,0.0
0.584766149520874,0.00019175052436715134,-0.15509269855802188,-0.2804150453955927,0.0,0.0
0.5873653888702393,0.00019175052436715134,0.10943770504310635,-0.18495460440985667,0.0,0.0
0.5897331237792969,0.00019175052436715134,-0.026184481574730967,-0.2674448767834008,0.0,0.0
0.5924296379089355,0.00019175052436715134,-0.0060425726710917615,-0.26070038910505744,0.0,0.0
0.5950217247009277,0.00019175052436715134,0.18463416495002605,-0.3691309987029854,0.0,0.0
0.5977218151092529,0.00019175052436715134,-0.10675211718928779,-0.18080415045395526,0.0,0.0
0.600285530090332,0.00019175052436715134,0.10272373540855995,-0.2939040207522723,0.0,0.0
0.6028916835784912,0.00019175052436715134,0.03826962691691449,-0.17872892347600455,0.0,0.0
0.6054811477661133,0.00019175052436715134,0.0986953536278321,-0.29494163424124764,0.0,0.0
0.6081993579864502,-0.00019175052436715134,-0.07721065079728362,-0.1180285343709464,0.0,0.0
0.610633134841919,0.00019175052436715134,-0.03558403906309593,-0.3530479896238674,0.0,0.0
0.6134433746337891,0.00019175052436715134,0.0060425726710917615,-0.149156939040207,0.0,0.0
0.6161589622497559,0.00019175052436715134,0.10406652933546923,-0.22438391699092008,0.0,0.0
0.6190900802612305,0.00019175052436715134,0.10272373540855995,-0.13411154345006437,0.0,0.0
0.6218962669372559,0.00019175052436715134,0.17120622568093324,-0.17250324254215244,0.0,0.0
0.6246509552001953,0.00019175052436715134,0.1738918135347518,-0.1356679636835274,0.0,0.0
0.6275596618652344,0.00019175052436715134,-0.054383154039825854,-0.02671854734111534,0.0,0.0
0.6304869651794434,0.00019175052436715134,-0.12420843823910843,-0.2638132295719835,0.0,0.0
0.6335029602050781,-0.00019175052436715134,-0.11212329289692491,-0.12529182879377387,0.0,0.0
0.6364665031433105,0.00019175052436715134,0.10809491111619707,-0.21141374837872817,0.0,0.0
0.6393940448760986,-0.00019175052436715134,-0.09735255970092282,-0.0806744487678337,0.0,0.0
0.642430305480957,0.00019175052436715134,-0.03961242084382377,-0.2809338521400804,0.0,0.0
0.6455583572387695,0.00019175052436715134,-0.027527275501640247,-0.08586251621271046,0.0,0.0
0.6484565734863281,0.00019175052436715134,-0.010070954451819603,-0.09468223086900096,0.0,0.0
0.6512563228607178,0.00019175052436715134,0.11883726253147131,-0.061478599221789665,0.0,0.0
0.6541707515716553,-0.00019175052436715134,0.10272373540855995,-0.0298313878080414,0.0,0.0
0.6571950912475586,0.00019175052436715134,0.15106431677729404,-0.09312581063553793,0.0,0.0
0.6602721214294434,0.00019175052436715134,-0.160463874265659,-0.22282749675745706,0.0,0.0
0.6630990505218506,0.00019175052436715134,0.09332417792019498,-0.12529182879377387,0.0,0.0
0.6658315658569336,0.00019175052436715134,-0.11078049897001563,-0.1071335927367052,0.0,0.0
