time,position,velocity,torque,position_ref,velocity_ref
2.384185791015625e-07,-0.02013380505848339,-0.11615167467765275,0.02204928664072625,0.0,0.0
0.0022335052490234375,-0.01936680296101656,1.0614785992217861,1.471595330739298,0.0,0.0
0.004337787628173828,-0.017449297717352152,2.171969176775768,1.1354085603112836,0.0,0.0
0.006353855133056641,-0.014764790376220915,2.8554512855725918,0.9086900129701689,0.0,0.0
0.008259296417236328,-0.011696781986357152,3.647699702449067,0.7027237354085614,0.0,0.0
0.010223388671875,-0.009012274645225915,3.2650034332799223,0.6741893644617392,0.0,0.0
0.012207984924316406,-0.006327767304094678,3.201892118715186,0.5865110246433218,0.0,0.0
0.014097929000854492,-0.003643259962963441,2.8299382009613154,0.5330739299610912,0.0,0.0
0.01600933074951172,-0.0013422536705647303,2.8003967345693113,0.518028534370945,0.0,0.0
0.017951488494873047,0.0005752515730996777,2.2807354848554198,0.3789883268482477,0.0,0.0
0.01987171173095703,0.001725754719299033,1.2293278400854462,0.3364461738002582,0.0,0.0
0.022064685821533203,0.0028762578654983884,0.9070572976272189,0.30894941634241135,0.0,0.0
0.02417302131652832,0.0032597589142309147,0.3578545815213232,0.29390402075226874,0.0,0.0
0.02619767189025879,0.003643259962963441,0.22357518883039518,0.2788586251621261,0.0,0.0
0.02817535400390625,0.0032597589142309147,-0.194033722438391,0.2907911802853427,0.0,0.0
0.030034780502319336,0.0028762578654983884,-0.6734111543450041,0.30946822308689903,0.0,0.0
0.03199887275695801,0.0021092557680315593,-0.8009765774013928,0.33748378728923356,0.0,0.0
0.03395414352416992,0.0013422536705647303,-0.7942626077668464,0.35356679636835153,0.0,0.0
0.0359499454498291,0.00019175052436715134,-1.1809872587167192,0.3478599221789871,0.0,0.0
0.03785991668701172,-0.0005752515730996777,-0.7768062867170258,0.36861219195849415,0.0,0.0
0.0397181510925293,-0.001725754719299033,-0.9755397878995993,0.35356679636835153,0.0,0.0
0.04168295860290527,-0.0021092557680315593,-0.5028763256275255,0.3016861219195839,0.0,0.0
0.04373526573181152,-0.0021092557680315593,-0.3793392843518717,0.2461738002594025,0.0,0.0
0.04581451416015625,-0.0021092557680315593,0.19134813458457245,0.19792477302204858,0.0,0.0
0.04782581329345703,-0.001725754719299033,0.26788738841840143,0.17405966277561546,0.0,0.0
0.04977917671203613,-0.0013422536705647303,0.4343938353551522,0.1382619974059658,0.0,0.0
0.05168414115905762,-0.0013422536705647303,0.37665369649805314,0.12840466926069993,0.0,0.0
0.05360865592956543,-0.0005752515730996777,0.6613260090028206,0.1377431906614781,0.0,0.0
0.055506229400634766,-0.00019175052436715134,0.5659876401922617,0.11543450064850802,0.0,0.0
0.05743408203125,0.00019175052436715134,0.6210421911955422,0.11180285343709429,0.0,0.0
0.05943131446838379,0.0005752515730996777,0.380682078278781,0.09260700389105025,0.0,0.0
0.06134843826293945,0.000958752621832204,0.3659113450827789,0.047989623865110076,0.0,0.0
0.06340885162353516,0.0013422536705647303,0.3739681086442346,0.022568093385213928,0.0,0.0
0.0655064582824707,0.0013422536705647303,0.4196231021591501,-0.01945525291828787,0.0,0.0
0.06760072708129883,0.001725754719299033,0.14569314106965692,-0.0298313878080414,0.0,0.0
0.06952166557312012,0.001725754719299033,-0.061097123674372256,-0.04695201037613472,0.0,0.0
0.07143473625183105,0.001725754719299033,-0.07721065079728362,-0.052658884565499164,0.0,0.0
0.07333230972290039,0.0013422536705647303,-0.1537499046311126,-0.03657587548638119,0.0,0.0
0.07525897026062012,0.000958752621832204,-0.1873197528038446,-0.05473411154344987,0.0,0.0
0.07717394828796387,0.000958752621832204,-0.3108567940794984,-0.04695201037613472,0.0,0.0
0.07909584045410156,0.0005752515730996777,-0.6532692454413649,-0.037613488975356546,0.0,0.0
0.08103060722351074,0.00019175052436715134,-0.6801251239795505,-0.05888456549935128,0.0,0.0
0.08301115036010742,-0.00019175052436715134,-0.47064927138170276,-0.03450064850843049,0.0,0.0
0.08506941795349121,-0.0005752515730996777,-0.4397650110627893,-0.033463035019455134,0.0,0.0
0.08717465400695801,-0.000958752621832204,-0.28802929732204063,-0.021530479896238575,0.0,0.0
0.08925700187683105,-0.000958752621832204,-0.32831311512931904,-0.01478599221789878,0.0,0.0
0.09140968322753906,-0.000958752621832204,-0.23834592202639726,-0.008041504539558986,0.0,0.0
0.09343504905700684,-0.000958752621832204,0.2987716487373149,-0.042282749675745634,0.0,0.0
0.09543371200561523,-0.000958752621832204,0.1886625467307539,-0.06199740596627734,0.0,0.0
0.09743499755859375,-0.0005752515730996777,0.38202487220569026,-0.059922178988326635,0.0,0.0
0.09937238693237305,-0.00019175052436715134,0.514961470969709,-0.08378728923475975,0.0,0.0
0.10136008262634277,0.00019175052436715134,0.20611886778057453,-0.10194552529182843,0.0,0.0
0.10325956344604492,0.00019175052436715134,0.3242847333485912,-0.09416342412451328,0.0,0.0
0.10521936416625977,0.0005752515730996777,-0.008728160524910322,-0.08430609597924743,0.0,0.0
0.10727739334106445,0.0005752515730996777,-0.03424124513618665,-0.08171206225680905,0.0,0.0
0.10941624641418457,0.0005752515730996777,0.11749446860456203,-0.09571984435797631,0.0,0.0
0.11150979995727539,0.0005752515730996777,-0.12152285038528987,-0.06614785992217875,0.0,0.0
0.11360692977905273,0.0005752515730996777,0.12823682001983627,-0.08378728923475975,0.0,0.0
0.11547279357910156,0.0005752515730996777,0.07452506294346506,-0.0915693904020749,0.0,0.0
0.11735701560974121,0.00019175052436715134,-0.0718394750896465,-0.0915693904020749,0.0,0.0
0.11937499046325684,0.00019175052436715134,-0.07049668116273722,-0.09520103761348864,0.0,0.0
0.1212611198425293,0.00019175052436715134,0.30011444266422416,-0.13411154345006437,0.0,0.0
0.12320208549499512,0.0005752515730996777,0.2907148851758592,-0.13411154345006437,0.0,0.0
0.12512683868408203,0.0005752515730996777,0.04229800869764233,-0.14085603112840417,0.0,0.0
0.12715363502502441,0.000958752621832204,0.27057297627222,-0.15901426718547285,0.0,0.0
0.12918448448181152,0.000958752621832204,-0.011413748378728883,-0.17717250324254152,0.0,0.0
0.13126778602600098,0.000958752621832204,-0.13226520180056411,-0.18754863813229505,0.0,0.0
0.1332411766052246,0.000958752621832204,-0.26654459449149215,-0.1818417639429306,0.0,0.0
0.13526415824890137,0.000958752621832204,-0.007385366598001042,-0.16523994811932496,0.0,0.0
0.1371753215789795,0.000958752621832204,-0.2289463645380323,-0.14137483787289185,0.0,0.0
0.1390976905822754,0.0005752515730996777,0.003356984817273201,-0.1382619974059658,0.0,0.0
0.14095568656921387,0.00019175052436715134,-0.5216754406042554,-0.1335927367055767,0.0,0.0
0.14286208152770996,0.00019175052436715134,-0.45722133211260996,-0.14604409857328093,0.0,0.0
0.14484930038452148,-0.00019175052436715134,-0.21149004348821165,-0.12217898832684781,0.0,0.0
0.1468369960784912,-0.0005752515730996777,-0.3296559090562283,-0.10869001297016823,0.0,0.0
0.14885330200195312,-0.0005752515730996777,-0.20477607385366525,-0.09364461738002561,0.0,0.0
0.15093111991882324,-0.000958752621832204,-0.25983062485694575,-0.08482490272373511,0.0,0.0
0.15296101570129395,-0.000958752621832204,-0.0986953536278321,-0.08378728923475975,0.0,0.0
0.1550133228302002,-0.0013422536705647303,-0.054383154039825854,-0.0806744487678337,0.0,0.0
0.15695762634277344,-0.001725754719299033,-0.15106431677729404,-0.04124513618677028,0.0,0.0
0.15887451171875,-0.001725754719299033,-0.03826962691691449,-0.018936446173800192,0.0,0.0
0.16076207160949707,-0.001725754719299033,-0.2074616617074838,-0.00596627756160828,0.0,0.0
0.16268491744995117,-0.0021092557680315593,-0.5525597009231689,0.01945525291828787,0.0,0.0
0.1645817756652832,-0.0021092557680315593,-0.2692301823453107,0.06822308690012946,0.0,0.0
0.16652536392211914,-0.0024927568167640857,-0.08661020828564858,0.08897535667963652,0.0,0.0
0.16843605041503906,-0.0024927568167640857,-0.4411078049896986,0.1356679636835274,0.0,0.0
0.17038273811340332,-0.0028762578654983884,-0.17926298924238893,0.12996108949416296,0.0,0.0
0.17251992225646973,-0.0028762578654983884,-0.04901197833218873,0.1600518806744482,0.0,0.0
0.1745777130126953,-0.0024927568167640857,0.0006713969634546402,0.14345006485084255,0.0,0.0
0.17669105529785156,-0.0024927568167640857,0.1819485770962075,0.15434500648508376,0.0,0.0
0.17862868309020996,-0.0021092557680315593,0.27057297627222,0.15642023346303446,0.0,0.0
0.1805257797241211,-0.0021092557680315593,0.2907148851758592,0.16057068741893588,0.0,0.0
0.18253469467163086,-0.001725754719299033,0.16314946211947756,0.17613488975356617,0.0,0.0
0.18443727493286133,-0.001725754719299033,0.1671778439002054,0.19273670557717182,0.0,0.0
0.18640613555908203,-0.0013422536705647303,0.12420843823910843,0.22075226977950635,0.0,0.0
0.18843555450439453,-0.0013422536705647303,-0.03289845120927737,0.2612191958495451,0.0,0.0
0.19034814834594727,-0.0013422536705647303,0.022156099794003126,0.26536964980544653,0.0,0.0
0.19231772422790527,-0.0013422536705647303,-0.10540932326237851,0.28664072632944126,0.0,0.0
0.1944119930267334,-0.0013422536705647303,0.09063859006637642,0.28871595330739197,0.0,0.0
0.19652676582336426,-0.001725754719299033,-0.194033722438391,0.26952010376134794,0.0,0.0
0.1986079216003418,-0.001725754719299033,-0.054383154039825854,0.24254215304798876,0.0,0.0
0.20052552223205566,-0.0013422536705647303,0.15777828641184044,0.237354085603112,0.0,0.0
0.20243525505065918,-0.0013422536705647303,0.32159914549477264,0.2575875486381314,0.0,0.0
0.2043321132659912,-0.0013422536705647303,-0.023498893720912406,0.24254215304798876,0.0,0.0
0.2061758041381836,-0.000958752621832204,0.08392462043183002,0.2612191958495451,0.0,0.0
0.2081458568572998,-0.000958752621832204,-0.06646829938200938,0.23631647211413664,0.0,0.0
0.21003985404968262,-0.000958752621832204,0.061097123674372256,0.26536964980544653,0.0,0.0
0.21195483207702637,-0.0013422536705647303,-0.14569314106965692,0.2575875486381314,0.0,0.0
0.21392822265625,-0.000958752621832204,0.026184481574730967,0.25343709468222997,0.0,0.0
0.21605730056762695,-0.000958752621832204,-0.27057297627222,0.23009079118028453,0.0,0.0
0.21820330619812012,-0.000958752621832204,0.4263370717936965,0.24513618677042714,0.0,0.0
0.22028827667236328,-0.000958752621832204,0.27191577019912927,0.23631647211413664,0.0,0.0
0.22228765487670898,-0.000958752621832204,-0.18329137102311677,0.23476005188067361,0.0,0.0
0.22438716888427734,-0.000958752621832204,0.007385366598001042,0.23112840466925988,0.0,0.0
0.2264871597290039,-0.000958752621832204,-0.10943770504310635,0.22542153047989544,0.0,0.0
0.22853803634643555,-0.000958752621832204,0.2826581216144035,0.23372243839169826,0.0,0.0
0.2305896282196045,-0.000958752621832204,0.020813305867093845,0.22957198443579685,0.0,0.0
0.23265695571899414,-0.000958752621832204,0.11212329289692491,0.23320363164721059,0.0,0.0
0.23478126525878906,-0.0013422536705647303,-0.16314946211947756,0.2352788586251613,0.0,0.0
0.23681306838989258,-0.000958752621832204,0.18329137102311677,0.23891050583657503,0.0,0.0
0.23888921737670898,-0.0013422536705647303,-0.07318226901655578,0.254993514915693,0.0,0.0
0.24098706245422363,-0.0013422536705647303,-0.19806210421911885,0.2700389105058356,0.0,0.0
0.24304413795471191,-0.0013422536705647303,0.018127718013275285,0.26692607003890956,0.0,0.0
0.2450699806213379,-0.001725754719299033,0.03692683299000521,0.25343709468222997,0.0,0.0
0.24721765518188477,-0.0013422536705647303,0.12286564431219915,0.2415045395590134,0.0,0.0
0.24921083450317383,-0.0013422536705647303,0.11749446860456203,0.24046692607003806,0.0,0.0
0.25110316276550293,-0.0013422536705647303,0.015442130159456724,0.22023346303501867,0.0,0.0
0.2529563903808594,-0.0013422536705647303,-0.0060425726710917615,0.23372243839169826,0.0,0.0
0.2548811435699463,-0.000958752621832204,0.2558022430762179,0.20207522697795,0.0,0.0
0.25696253776550293,-0.000958752621832204,0.371282520790416,0.18028534370946758,0.0,0.0
0.2589554786682129,-0.0005752515730996777,0.3672541390096882,0.18132295719844294,0.0,0.0
0.26107048988342285,-0.0005752515730996777,0.1819485770962075,0.17821011673151688,0.0,0.0
0.2630457878112793,-0.00019175052436715134,0.12823682001983627,0.16523994811932496,0.0,0.0
0.2649569511413574,-0.00019175052436715134,0.30145723659113344,0.17042801556420173,0.0,0.0
0.26690220832824707,-0.00019175052436715134,-0.0852674143587393,0.16057068741893588,0.0,0.0
0.26886510848999023,-0.00019175052436715134,-0.022156099794003126,0.15642023346303446,0.0,0.0
0.2708110809326172,0.00019175052436715134,0.08392462043183002,0.13203631647211367,0.0,0.0
0.2727513313293457,-0.00019175052436715134,0.11883726253147131,0.12321660181582317,0.0,0.0
0.2746853828430176,0.00019175052436715134,-0.12152285038528987,0.10557717250324217,0.0,0.0
0.27655577659606934,0.00019175052436715134,0.16583504997329612,0.07756160830090764,0.0,0.0
0.27864718437194824,0.00019175052436715134,0.06646829938200938,0.06095979247730199,0.0,0.0
0.280684232711792,0.00019175052436715134,0.023498893720912406,0.059922178988326635,0.0,0.0
0.28278064727783203,0.00019175052436715134,-0.015442130159456724,0.029312581063553722,0.0,0.0
0.2848384380340576,0.00019175052436715134,0.08795300221255786,0.0023346303501945442,0.0,0.0
0.2867763042449951,0.0005752515730996777,-0.09735255970092282,-0.012191958495460398,0.0,0.0
0.28868746757507324,0.0005752515730996777,0.3779964904249624,-0.013748378728923427,0.0,0.0
0.29061055183410645,0.0005752515730996777,0.1819485770962075,-0.018936446173800192,0.0,0.0
0.29250144958496094,0.0005752515730996777,0.2692301823453107,-0.05369649805447452,0.0,0.0
0.29446935653686523,0.0005752515730996777,0.12823682001983627,-0.04902723735408543,0.0,0.0
0.29648494720458984,0.0005752515730996777,0.0919813839932857,-0.04850843060959775,0.0,0.0
0.29843592643737793,0.0005752515730996777,-0.2558022430762179,-0.06770428015564178,0.0,0.0
0.3005867004394531,0.0005752515730996777,-0.1403219653620198,-0.04020752269779493,0.0,0.0
0.30266547203063965,0.00019175052436715134,-0.26520180056458287,-0.049546044098573105,0.0,0.0
0.3047294616699219,0.00019175052436715134,-0.1873197528038446,-0.05888456549935128,0.0,0.0
0.30675721168518066,0.00019175052436715134,-0.23163195239185086,-0.06199740596627734,0.0,0.0
0.3086869716644287,0.00019175052436715134,0.25177386129549006,-0.06199740596627734,0.0,0.0
0.310610294342041,-0.00019175052436715134,-0.04229800869764233,-0.056809338521400576,0.0,0.0
0.3125267028808594,-0.00019175052436715134,-0.11078049897001563,-0.07029831387808017,0.0,0.0
0.3144361972808838,-0.00019175052436715134,-0.08258182650492074,-0.06977950713359249,0.0,0.0
0.3163599967956543,-0.00019175052436715134,0.004699778744182481,-0.07081712062256784,0.0,0.0
0.31826305389404297,-0.00019175052436715134,-0.22088960097657662,-0.05473411154344987,0.0,0.0
0.3203284740447998,-0.00019175052436715134,0.32025635156786336,-0.04020752269779493,0.0,0.0
0.322429895401001,-0.0005752515730996777,-0.004699778744182481,-0.03657587548638119,0.0,0.0
0.3245279788970947,-0.0005752515730996777,-0.22760357061112302,-0.04280155642023331,0.0,0.0
0.32659125328063965,-0.0005752515730996777,-0.10272373540855995,-0.03138780804150443,0.0,0.0
0.32852721214294434,-0.0005752515730996777,0.27460135805294783,-0.03968871595330725,0.0,0.0
0.33043718338012695,-0.0005752515730996777,-0.07586785687037434,-0.059922178988326635,0.0,0.0
0.33241748809814453,-0.0005752515730996777,0.23163195239185086,-0.04332036316472099,0.0,0.0
0.3343510627746582,-0.00019175052436715134,0.34039826047150257,-0.05940337224383896,0.0,0.0
0.33626532554626465,-0.00019175052436715134,-0.05035477225909801,-0.0651102464332034,0.0,0.0
0.33818888664245605,0.00019175052436715134,0.18329137102311677,-0.07652399481193228,0.0,0.0
0.3400390148162842,0.00019175052436715134,0.1738918135347518,-0.07548638132295693,0.0,0.0
0.3420684337615967,0.00019175052436715134,-0.09735255970092282,-0.06044098573281431,0.0,0.0
0.3442373275756836,0.00019175052436715134,0.019470511940184565,-0.061478599221789665,0.0,0.0
0.3463175296783447,0.00019175052436715134,-0.160463874265659,-0.07029831387808017,0.0,0.0
0.3484232425689697,0.00019175052436715134,-0.07721065079728362,-0.06459143968871572,0.0,0.0
0.35043931007385254,0.00019175052436715134,-0.05169756618600729,-0.07652399481193228,0.0,0.0
0.35233330726623535,0.00019175052436715134,-0.018127718013275285,-0.10402075226977914,0.0,0.0
0.3543078899383545,0.00019175052436715134,-0.07586785687037434,-0.10765239948119287,0.0,0.0
0.3562033176422119,0.0005752515730996777,-0.054383154039825854,-0.10298313878080378,0.0,0.0
0.35809898376464844,0.0005752515730996777,-0.027527275501640247,-0.11128404669260661,0.0,0.0
0.3599565029144287,0.0005752515730996777,-0.1953765163653003,-0.1289234760051876,0.0,0.0
0.36183619499206543,0.000958752621832204,-0.03826962691691449,-0.14345006485084255,0.0,0.0
0.36380624771118164,0.000958752621832204,0.19671931029220957,-0.14189364461737952,0.0,0.0
0.3658123016357422,0.000958752621832204,0.030212863355458808,-0.15642023346303446,0.0,0.0
0.3679018020629883,0.000958752621832204,0.06378271152819082,-0.18132295719844294,0.0,0.0
0.3700244426727295,0.0013422536705647303,0.3309987029831376,-0.20103761348897464,0.0,0.0
0.37195682525634766,0.0013422536705647303,-0.014099336232547444,-0.21348897535667888,0.0,0.0
0.37384939193725586,0.0013422536705647303,-0.019470511940184565,-0.20985732814526514,0.0,0.0
0.37575817108154297,0.0013422536705647303,0.057068741893644415,-0.22127107652399403,0.0,0.0
0.37769198417663574,0.000958752621832204,-0.21686121919584878,-0.21141374837872817,0.0,0.0
0.37961292266845703,0.000958752621832204,-0.028870069428549527,-0.21867704280155564,0.0,0.0
0.38147616386413574,0.000958752621832204,-0.2960860608834963,-0.219714656290531,0.0,0.0
0.3834383487701416,0.0005752515730996777,-0.19000534065766317,-0.22127107652399403,0.0,0.0
0.3853905200958252,0.0005752515730996777,-0.24103150988021582,-0.219714656290531,0.0,0.0
0.3875288963317871,0.00019175052436715134,-0.27191577019912927,-0.2176394293125803,0.0,0.0
0.3895304203033447,0.00019175052436715134,-0.2504310673685808,-0.18702983138780738,0.0,0.0
0.39156341552734375,0.00019175052436715134,-0.1671778439002054,-0.1911802853437088,0.0,0.0
0.39345431327819824,-0.00019175052436715134,-0.27997253376058495,-0.19014267185473344,0.0,0.0
0.39533472061157227,-0.00019175052436715134,-0.15106431677729404,-0.17717250324254152,0.0,0.0
0.3972043991088867,-0.00019175052436715134,-0.03961242084382377,-0.18702983138780738,0.0,0.0
0.39911627769470215,-0.00019175052436715134,-0.0060425726710917615,-0.18287937743190597,0.0,0.0
0.4010179042816162,-0.00019175052436715134,0.2826581216144035,-0.19377431906614717,0.0,0.0
0.4029557704925537,-0.00019175052436715134,0.058411535820553695,-0.1911802853437088,0.0,0.0
0.40486621856689453,0.00019175052436715134,0.1953765163653003,-0.19844357976653626,0.0,0.0
0.407010555267334,0.00019175052436715134,0.2974288548104056,-0.18806744487678273,0.0,0.0
0.40901708602905273,0.00019175052436715134,0.3296559090562283,-0.22438391699092008,0.0,0.0
0.4110686779022217,0.0005752515730996777,0.3162279697871355,-0.22957198443579685,0.0,0.0
0.4131002426147461,0.000958752621832204,0.5471885252155317,-0.23164721141374756,0.0,0.0
0.4150996208190918,0.000958752621832204,0.008728160524910322,-0.23112840466925988,0.0,0.0
0.41701698303222656,0.000958752621832204,-0.03289845120927737,-0.21141374837872817,0.0,0.0
0.41887545585632324,0.000958752621832204,-0.12018005645838059,-0.23320363164721059,0.0,0.0
0.4208395481109619,0.000958752621832204,0.08661020828564858,-0.22023346303501867,0.0,0.0
0.42275190353393555,0.000958752621832204,-0.12018005645838059,-0.23787289234759967,0.0,0.0
0.4247322082519531,0.0005752515730996777,-0.08929579613946714,-0.25136186770427926,0.0,0.0
0.42688751220703125,0.000958752621832204,-0.13897917143511052,-0.26277561608300815,0.0,0.0
0.4292020797729492,0.000958752621832204,0.13092240787365483,-0.27730220492866664,0.0,0.0
0.43140435218811035,0.000958752621832204,-0.28131532768749423,-0.29027237354085855,0.0,0.0
0.43370771408081055,0.000958752621832204,0.19806210421911885,-0.28560311284046946,0.0,0.0
