time,position,velocity,torque,position_ref,velocity_ref
2.384185791015625e-07,-0.02013380505848339,0.0718394750896465,-0.00025940337224383825,-0.0,-0.0
0.0022306442260742188,-0.019750304009750863,0.13092240787365483,0.7405966277561618,-0.0,-0.0
0.004376411437988281,-0.018983301912284034,0.4746776531624306,0.009597924773022015,-0.0,-0.0
0.006325244903564453,-0.01783279876608468,0.4129091325246037,-0.00025940337224383825,-0.0,-0.0
0.008554220199584961,-0.0166822956198871,0.47736324101624916,0.06562905317769108,-0.0,-0.0
0.010387659072875977,-0.01591529352242027,0.48542000457770484,0.03398184176394281,-0.0,-0.0
0.012523174285888672,-0.014764790376220915,0.524361028458074,0.0806744487678337,-0.0,-0.0
0.014616012573242188,-0.01361428723002156,0.4196231021591501,-0.00025940337224383825,-0.0,-0.0
0.016808271408081055,-0.012463784083822205,0.5163042648966183,-0.00025940337224383825,-0.0,-0.0
0.0189664363861084,-0.011696781986357152,0.4424505989166079,0.02671854734111534,-0.0,-0.0
0.02121281623840332,-0.010546278840157797,0.41693751430533155,0.06459143968871572,-0.0,-0.0
0.023183822631835938,-0.009779276742692744,0.3981383993286016,0.10972762645914358,-0.0,-0.0
0.02538442611694336,-0.009012274645225915,0.32025635156786336,0.09312581063553793,-0.0,-0.0
0.027596235275268555,-0.008245272547759086,0.36188296330205105,0.20103761348897464,-0.0,-0.0
0.029576778411865234,-0.007478270450294033,0.3672541390096882,0.03553826199740584,-0.0,-0.0
0.0317230224609375,-0.006711268352827204,0.32159914549477264,0.3302204928664061,-0.0,-0.0
0.03401017189025879,-0.006327767304094678,0.33368429083695617,0.17613488975356617,-0.0,-0.0
0.03610038757324219,-0.005944266255362152,0.23834592202639726,0.08690012970168581,-0.0,-0.0
0.03833794593811035,-0.005177264157895323,0.16986343175402396,-0.00025940337224383825,-0.0,-0.0
0.040512800216674805,-0.004793763109162796,0.22760357061112302,0.29546044098573176,-0.0,-0.0
0.04274940490722656,-0.00441026206043027,0.14300755321583836,0.13099870298313832,-0.0,-0.0
0.04492640495300293,-0.004026761011695967,0.12823682001983627,0.3499351491569378,-0.0,-0.0
0.047072410583496094,-0.003643259962963441,0.14569314106965692,-0.00025940337224383825,-0.0,-0.0
0.04923295974731445,-0.0032597589142309147,0.23163195239185086,0.15175097276264538,-0.0,-0.0
0.051393747329711914,-0.0028762578654983884,0.15509269855802188,0.1247730220492862,-0.0,-0.0
0.05356311798095703,-0.0028762578654983884,0.12286564431219915,0.3167315175097265,-0.0,-0.0
0.055756568908691406,-0.0024927568167640857,0.10272373540855995,0.08638132295719814,-0.0,-0.0
0.05807614326477051,-0.0024927568167640857,0.04229800869764233,0.3629053177691297,-0.0,-0.0
0.06042289733886719,-0.0021092557680315593,0.057068741893644415,0.3369649805447459,-0.0,-0.0
0.06280827522277832,-0.0021092557680315593,0.014099336232547444,0.4625162127107636,-0.0,-0.0
0.06507515907287598,-0.0021092557680315593,0.07452506294346506,0.1974059662775609,-0.0,-0.0
0.06725072860717773,-0.001725754719299033,0.06915388723582794,-0.00025940337224383825,-0.0,-0.0
0.06945657730102539,-0.0013422536705647303,0.09332417792019498,0.16990920881971405,-0.0,-0.0
0.0716550350189209,-0.0013422536705647303,0.03961242084382377,0.11128404669260661,-0.0,-0.0
0.0737152099609375,-0.0013422536705647303,0.06378271152819082,0.30894941634241135,-0.0,-0.0
0.07595705986022949,-0.0013422536705647303,0.027527275501640247,0.011673151750972721,-0.0,-0.0
0.07798624038696289,-0.0013422536705647303,0.026184481574730967,0.15745784695200982,-0.0,-0.0
0.08006644248962402,-0.0013422536705647303,-0.05169756618600729,0.131517509727626,-0.0,-0.0
0.08225226402282715,-0.0013422536705647303,0.016784924086366004,0.3582360570687406,-0.0,-0.0
0.08438611030578613,-0.0013422536705647303,-0.04498359655146089,0.1159533073929957,-0.0,-0.0
0.08673214912414551,-0.000958752621832204,0.062439917601281536,0.18287937743190597,-0.0,-0.0
0.08896470069885254,-0.0013422536705647303,0.0651255054551001,0.07756160830090764,-0.0,-0.0
0.0910794734954834,-0.0013422536705647303,-0.023498893720912406,0.1159533073929957,-0.0,-0.0
0.09306764602661133,-0.000958752621832204,0.027527275501640247,0.2638132295719835,-0.0,-0.0
0.09490489959716797,-0.0013422536705647303,0.04498359655146089,0.41893644617379877,-0.0,-0.0
0.09687232971191406,-0.0013422536705647303,-0.004699778744182481,0.2856031128404659,-0.0,-0.0
0.09879040718078613,-0.0013422536705647303,-0.03826962691691449,0.5201037613488957,-0.0,-0.0
0.10084414482116699,-0.000958752621832204,0.10540932326237851,0.1797665369649799,-0.0,-0.0
0.10296225547790527,-0.000958752621832204,-0.04901197833218873,-0.00025940337224383825,-0.0,-0.0
0.10506701469421387,-0.000958752621832204,0.10943770504310635,0.01945525291828787,-0.0,-0.0
0.10708069801330566,-0.000958752621832204,-0.007385366598001042,0.25395590142671765,-0.0,-0.0
0.10898160934448242,-0.000958752621832204,0.011413748378728883,0.28508430609597823,-0.0,-0.0
0.1109309196472168,-0.000958752621832204,0.058411535820553695,-0.00025940337224383825,-0.0,-0.0
0.11290907859802246,-0.000958752621832204,-0.03289845120927737,0.31517509727626347,-0.0,-0.0
0.11477494239807129,-0.000958752621832204,0.0852674143587393,0.0671854734111541,-0.0,-0.0
0.11679816246032715,-0.000958752621832204,-0.023498893720912406,-0.00025940337224383825,-0.0,-0.0
0.11876392364501953,-0.000958752621832204,-0.022156099794003126,0.0739299610894939,-0.0,-0.0
0.12076544761657715,-0.0005752515730996777,0.062439917601281536,-0.00025940337224383825,-0.0,-0.0
0.12279081344604492,-0.000958752621832204,-0.053040360112916574,0.0760051880674446,-0.0,-0.0
0.1248161792755127,-0.000958752621832204,-0.03961242084382377,0.13670557717250276,-0.0,-0.0
0.12696003913879395,-0.000958752621832204,0.016784924086366004,-0.00025940337224383825,-0.0,-0.0
0.12895894050598145,-0.000958752621832204,-0.0060425726710917615,0.14811932555123164,-0.0,-0.0
0.13087034225463867,-0.0005752515730996777,0.08929579613946714,0.14552529182879326,-0.0,-0.0
0.13287091255187988,-0.0005752515730996777,0.03558403906309593,-0.00025940337224383825,-0.0,-0.0
0.13477563858032227,-0.000958752621832204,-0.0718394750896465,0.2238651102464324,-0.0,-0.0
0.13660907745361328,-0.000958752621832204,-0.04766918440527945,0.13463035019455205,-0.0,-0.0
0.13852405548095703,-0.0005752515730996777,0.061097123674372256,0.1797665369649799,-0.0,-0.0
0.14041876792907715,-0.000958752621832204,0.018127718013275285,-0.00025940337224383825,-0.0,-0.0
0.14234685897827148,-0.000958752621832204,-0.003356984817273201,0.051102464332036135,-0.0,-0.0
0.14437150955200195,-0.0005752515730996777,-0.030212863355458808,0.00025940337224383825,-0.0,-0.0
0.14641618728637695,-0.000958752621832204,0.026184481574730967,-0.00025940337224383825,-0.0,-0.0
0.14832663536071777,-0.0005752515730996777,0.04498359655146089,-0.00025940337224383825,-0.0,-0.0
0.15044283866882324,-0.000958752621832204,-0.027527275501640247,0.2062256809338514,-0.0,-0.0
0.15233206748962402,-0.0005752515730996777,0.027527275501640247,-0.00025940337224383825,-0.0,-0.0
0.15427517890930176,-0.0005752515730996777,0.027527275501640247,-0.00025940337224383825,-0.0,-0.0
0.15626931190490723,-0.000958752621832204,-0.07318226901655578,0.05369649805447452,-0.0,-0.0
0.15817904472351074,-0.0005752515730996777,0.0785534447241929,0.08119325551232137,-0.0,-0.0
0.16015028953552246,-0.0005752515730996777,-0.06646829938200938,0.12010376134889711,-0.0,-0.0
0.16206741333007812,-0.0005752515730996777,-0.003356984817273201,0.25395590142671765,-0.0,-0.0
0.16392898559570312,-0.0005752515730996777,0.004699778744182481,-0.00025940337224383825,-0.0,-0.0
0.16611552238464355,-0.0005752515730996777,0.03961242084382377,-0.00025940337224383825,-0.0,-0.0
0.16820287704467773,-0.0005752515730996777,-0.028870069428549527,0.10505836575875449,-0.0,-0.0
0.1703803539276123,-0.0005752515730996777,0.007385366598001042,0.019974059662775545,-0.0,-0.0
0.17239618301391602,-0.0005752515730996777,-0.06646829938200938,0.11906614785992176,-0.0,-0.0
0.17432546615600586,-0.0005752515730996777,0.10675211718928779,-0.00025940337224383825,-0.0,-0.0
0.17625141143798828,-0.000958752621832204,-0.09735255970092282,-0.00025940337224383825,-0.0,-0.0
0.17817974090576172,-0.0005752515730996777,0.07989623865110218,-0.00025940337224383825,-0.0,-0.0
0.1800675392150879,-0.000958752621832204,-0.08258182650492074,0.01478599221789878,-0.0,-0.0
0.18198204040527344,-0.0005752515730996777,-0.0020141908903639205,0.19844357976653626,-0.0,-0.0
0.18387246131896973,-0.0005752515730996777,0.061097123674372256,-0.00025940337224383825,-0.0,-0.0
0.1858348846435547,-0.0005752515730996777,-0.04901197833218873,0.017380025940337163,-0.0,-0.0
0.18790245056152344,-0.0005752515730996777,0.010070954451819603,0.09779507133592702,-0.0,-0.0
0.18998408317565918,-0.0005752515730996777,0.08123903257801146,0.10557717250324217,-0.0,-0.0
0.19204115867614746,-0.000958752621832204,-0.08795300221255786,-0.14863813229571932,-0.0,-0.0
0.19406819343566895,-0.0005752515730996777,0.04766918440527945,0.3208819714656279,-0.0,-0.0
0.19598054885864258,-0.000958752621832204,0.022156099794003126,-0.00025940337224383825,-0.0,-0.0
0.19793128967285156,-0.0005752515730996777,-0.03424124513618665,0.14760051880674396,-0.0,-0.0
0.1999039649963379,-0.000958752621832204,-0.027527275501640247,0.2679636835278849,-0.0,-0.0
0.20180535316467285,-0.0005752515730996777,-0.03155565728236809,-0.00025940337224383825,-0.0,-0.0
0.20372915267944336,-0.000958752621832204,-0.05169756618600729,0.06926070038910481,-0.0,-0.0
0.20565104484558105,-0.000958752621832204,0.058411535820553695,-0.00025940337224383825,-0.0,-0.0
0.2076578140258789,-0.000958752621832204,-0.11078049897001563,0.010635538261997368,-0.0,-0.0
0.20973491668701172,-0.0005752515730996777,0.03961242084382377,0.20311284046692535,-0.0,-0.0
0.21182990074157715,-0.0005752515730996777,0.07452506294346506,-0.00025940337224383825,-0.0,-0.0
0.21387243270874023,-0.000958752621832204,-0.024841687647821686,0.17821011673151688,-0.0,-0.0
0.21587204933166504,-0.000958752621832204,-0.053040360112916574,0.2617380025940328,-0.0,-0.0
0.21787357330322266,-0.0005752515730996777,0.027527275501640247,-0.00025940337224383825,-0.0,-0.0
0.21983695030212402,-0.000958752621832204,-0.07989623865110218,0.011673151750972721,-0.0,-0.0
0.22187137603759766,-0.000958752621832204,0.010070954451819603,0.0739299610894939,-0.0,-0.0
0.2238783836364746,-0.000958752621832204,0.053040360112916574,0.1444876783398179,-0.0,-0.0
0.22578120231628418,-0.000958752621832204,0.04498359655146089,0.3146562905317758,-0.0,-0.0
0.22768020629882812,-0.000958752621832204,-0.055725947966735134,-0.00025940337224383825,-0.0,-0.0
0.22971081733703613,-0.000958752621832204,-0.061097123674372256,0.3141374837872881,-0.0,-0.0
0.2317790985107422,-0.000958752621832204,-0.03692683299000521,-0.00025940337224383825,-0.0,-0.0
0.2339639663696289,-0.000958752621832204,-0.026184481574730967,0.052658884565499164,-0.0,-0.0
0.2360377311706543,-0.000958752621832204,0.04364080262455161,0.3369649805447459,-0.0,-0.0
0.23798036575317383,-0.000958752621832204,-0.003356984817273201,0.21141374837872817,-0.0,-0.0
0.23987507820129395,-0.000958752621832204,-0.09332417792019498,-0.00025940337224383825,-0.0,-0.0
0.24187374114990234,-0.000958752621832204,-0.061097123674372256,0.3587548638132283,-0.0,-0.0
0.24390435218811035,-0.000958752621832204,-0.07452506294346506,-0.00025940337224383825,-0.0,-0.0
0.24587345123291016,-0.000958752621832204,-0.014099336232547444,0.07704280155641996,-0.0,-0.0
0.24778056144714355,-0.000958752621832204,0.011413748378728883,0.1268482490272369,-0.0,-0.0
0.2497239112854004,-0.000958752621832204,0.05169756618600729,0.10817120622568055,-0.0,-0.0
0.25180673599243164,-0.0013422536705647303,-0.0718394750896465,0.05784695201037593,-0.0,-0.0
0.2538740634918213,-0.000958752621832204,0.06378271152819082,0.1424124513618672,-0.0,-0.0
0.25593066215515137,-0.000958752621832204,-0.058411535820553695,-0.00025940337224383825,-0.0,-0.0
0.2579829692840576,-0.000958752621832204,0.022156099794003126,0.2482490272373532,-0.0,-0.0
0.2598738670349121,-0.000958752621832204,0.03692683299000521,0.018417639429312516,-0.0,-0.0
0.26182031631469727,-0.000958752621832204,0.028870069428549527,0.05577172503242522,-0.0,-0.0
0.26375555992126465,-0.000958752621832204,0.054383154039825854,0.03709468223086887,-0.0,-0.0
0.26567673683166504,-0.000958752621832204,0.023498893720912406,0.33748378728923356,-0.0,-0.0
0.2675783634185791,-0.000958752621832204,-0.04632639047837017,0.2643320363164712,-0.0,-0.0
0.26952648162841797,-0.000958752621832204,-0.020813305867093845,-0.00025940337224383825,-0.0,-0.0
0.2713582515716553,-0.000958752621832204,0.008728160524910322,0.2238651102464324,-0.0,-0.0
0.2732512950897217,-0.000958752621832204,0.0919813839932857,0.27782101167315076,-0.0,-0.0
0.27515530586242676,-0.000958752621832204,0.028870069428549527,0.12010376134889711,-0.0,-0.0
0.27701687812805176,-0.000958752621832204,-0.03961242084382377,-0.00025940337224383825,-0.0,-0.0
0.27890801429748535,-0.000958752621832204,0.015442130159456724,0.3058365758754853,-0.0,-0.0
0.2808191776275635,-0.000958752621832204,0.08661020828564858,-0.00025940337224383825,-0.0,-0.0
0.2826731204986572,-0.000958752621832204,-0.0919813839932857,0.1974059662775609,-0.0,-0.0
0.2845780849456787,-0.000958752621832204,-0.04095521477073305,0.2171206225680926,-0.0,-0.0
0.2865011692047119,-0.000958752621832204,0.030212863355458808,0.0983138780804147,-0.0,-0.0
0.2884061336517334,-0.000958752621832204,0.0006713969634546402,-0.00025940337224383825,-0.0,-0.0
0.2903280258178711,-0.000958752621832204,-0.03961242084382377,0.17717250324254152,-0.0,-0.0
0.2922506332397461,-0.000958752621832204,-0.04364080262455161,-0.00025940337224383825,-0.0,-0.0
0.29438352584838867,-0.000958752621832204,0.024841687647821686,0.23112840466925988,-0.0,-0.0
0.29657626152038574,-0.000958752621832204,-0.008728160524910322,0.18287937743190597,-0.0,-0.0
0.2987074851989746,-0.000958752621832204,-0.004699778744182481,0.3831387808041491,-0.0,-0.0
0.300783634185791,-0.000958752621832204,-0.008728160524910322,0.1533073929961084,-0.0,-0.0
0.303023099899292,-0.000958752621832204,0.03826962691691449,-0.00025940337224383825,-0.0,-0.0
0.30501818656921387,-0.000958752621832204,0.011413748378728883,0.0298313878080414,-0.0,-0.0
0.3072378635406494,-0.000958752621832204,0.06781109330891866,-0.00025940337224383825,-0.0,-0.0
0.30927085876464844,-0.000958752621832204,-0.05035477225909801,0.3691309987029818,-0.0,-0.0
0.3114504814147949,-0.000958752621832204,0.07989623865110218,0.052658884565499164,-0.0,-0.0
0.3135793209075928,-0.000958752621832204,-0.053040360112916574,-0.00025940337224383825,-0.0,-0.0
0.31563758850097656,-0.000958752621832204,-0.011413748378728883,0.23372243839169826,-0.0,-0.0
0.317974328994751,-0.0005752515730996777,0.08123903257801146,-0.027756160830090693,-0.0,-0.0
0.3201878070831299,-0.000958752621832204,-0.026184481574730967,-0.00025940337224383825,-0.0,-0.0
0.3224484920501709,-0.0005752515730996777,0.0651255054551001,0.1688715953307387,-0.0,-0.0
0.32462525367736816,-0.0005752515730996777,-0.0020141908903639205,-0.00025940337224383825,-0.0,-0.0
0.3269691467285156,-0.000958752621832204,-0.06646829938200938,0.07859922178988299,-0.0,-0.0
0.3290410041809082,-0.000958752621832204,0.06646829938200938,0.1247730220492862,-0.0,-0.0
0.3312113285064697,-0.000958752621832204,-0.10272373540855995,0.3099870298313867,-0.0,-0.0
0.3334529399871826,-0.0005752515730996777,0.07989623865110218,-0.005447470817120603,-0.0,-0.0
0.3356037139892578,-0.000958752621832204,-0.05035477225909801,0.08482490272373511,-0.0,-0.0
0.3377344608306885,-0.0005752515730996777,0.04766918440527945,0.2612191958495451,-0.0,-0.0
0.34007811546325684,-0.0005752515730996777,0.003356984817273201,-0.00025940337224383825,-0.0,-0.0
0.3423748016357422,-0.000958752621832204,-0.020813305867093845,0.042282749675745634,-0.0,-0.0
0.3444509506225586,-0.000958752621832204,0.004699778744182481,-0.00025940337224383825,-0.0,-0.0
0.34662961959838867,-0.000958752621832204,-0.03961242084382377,-0.00025940337224383825,-0.0,-0.0
0.34892892837524414,-0.000958752621832204,0.04095521477073305,-0.00025940337224383825,-0.0,-0.0
0.3510763645172119,-0.000958752621832204,0.04364080262455161,0.0760051880674446,-0.0,-0.0
0.35306882858276367,-0.000958752621832204,-0.04364080262455161,0.22075226977950635,-0.0,-0.0
0.3552103042602539,-0.0005752515730996777,0.11749446860456203,0.26225680933852047,-0.0,-0.0
0.35752058029174805,-0.000958752621832204,-0.04229800869764233,0.4095979247730206,-0.0,-0.0
0.35979509353637695,-0.000958752621832204,-0.022156099794003126,0.12010376134889711,-0.0,-0.0
0.36208176612854004,-0.000958752621832204,0.010070954451819603,-0.00025940337224383825,-0.0,-0.0
0.36432552337646484,-0.000958752621832204,-0.004699778744182481,-0.00025940337224383825,-0.0,-0.0
0.36663007736206055,-0.000958752621832204,-0.026184481574730967,-0.00025940337224383825,-0.0,-0.0
0.3689441680908203,-0.000958752621832204,-0.06378271152819082,0.012710765239948074,-0.0,-0.0
0.3712122440338135,-0.000958752621832204,-0.012756542305638163,0.3338521400778198,-0.0,-0.0
0.3734574317932129,-0.000958752621832204,0.055725947966735134,0.10298313878080378,-0.0,-0.0
0.37557220458984375,-0.000958752621832204,-0.026184481574730967,0.2819714656290522,-0.0,-0.0
0.3776881694793701,-0.000958752621832204,0.04095521477073305,0.11180285343709429,-0.0,-0.0
0.3799421787261963,-0.000958752621832204,0.015442130159456724,-0.03138780804150443,-0.0,-0.0
0.3822457790374756,-0.000958752621832204,-0.07049668116273722,0.11024643320363126,-0.0,-0.0
0.38449716567993164,-0.000958752621832204,0.03289845120927737,-0.00025940337224383825,-0.0,-0.0
0.3867816925048828,-0.000958752621832204,0.03961242084382377,0.3546044098573269,-0.0,-0.0
0.3890390396118164,-0.000958752621832204,-0.030212863355458808,0.11128404669260661,-0.0,-0.0
0.39121174812316895,-0.000958752621832204,0.05035477225909801,0.011673151750972721,-0.0,-0.0
0.39338231086730957,-0.000958752621832204,0.016784924086366004,0.2238651102464324,-0.0,-0.0
0.39550018310546875,-0.000958752621832204,-0.06646829938200938,0.03657587548638119,-0.0,-0.0
0.3976399898529053,-0.000958752621832204,-0.07049668116273722,0.03657587548638119,-0.0,-0.0
0.3998072147369385,-0.000958752621832204,-0.030212863355458808,0.3016861219195839,-0.0,-0.0
0.4020955562591553,-0.000958752621832204,0.0020141908903639205,-0.00025940337224383825,-0.0,-0.0
0.4043729305267334,-0.000958752621832204,0.008728160524910322,0.13981841763942882,-0.0,-0.0
0.4066736698150635,-0.0013422536705647303,-0.022156099794003126,0.3016861219195839,-0.0,-0.0
0.4089317321777344,-0.000958752621832204,-0.0020141908903639205,-0.00025940337224383825,-0.0,-0.0
0.41108131408691406,-0.000958752621832204,-0.028870069428549527,0.396108949416341,-0.0,-0.0
0.4130704402923584,-0.0013422536705647303,-0.04364080262455161,0.0806744487678337,-0.0,-0.0
0.41521191596984863,-0.000958752621832204,0.04229800869764233,-0.00025940337224383825,-0.0,-0.0
0.4174778461456299,-0.0013422536705647303,-0.03289845120927737,0.1470817120622563,-0.0,-0.0
0.41972994804382324,-0.0013422536705647303,-0.004699778744182481,-0.00025940337224383825,-0.0,-0.0
0.4219834804534912,-0.000958752621832204,0.04095521477073305,-0.00025940337224383825,-0.0,-0.0
0.4242441654205322,-0.0013422536705647303,-0.026184481574730967,0.4443579766536949,-0.0,-0.0
0.4266011714935303,-0.0013422536705647303,0.0060425726710917615,-0.00025940337224383825,-0.0,-0.0
0.4288747310638428,-0.000958752621832204,0.03826962691691449,-0.00025940337224383825,-0.0,-0.0
0.4310431480407715,-0.000958752621832204,-0.05169756618600729,0.26692607003890956,-0.0,-0.0
0.4330718517303467,-0.0013422536705647303,-0.03558403906309593,0.1906614785992211,-0.0,-0.0
0.43501710891723633,-0.000958752621832204,0.003356984817273201,0.26018158236056976,-0.0,-0.0
0.4368722438812256,-0.000958752621832204,-0.04901197833218873,0.26952010376134794,-0.0,-0.0
0.43879246711730957,-0.000958752621832204,0.028870069428549527,0.1289234760051876,-0.0,-0.0
