time,position,velocity,torque,position_ref,velocity_ref
7.152557373046875e-07,-0.04659537742106146,-0.0852674143587393,-0.07341115434500622,-0.0,-0.0
0.002596616744995117,-0.04621187637232893,0.4948195620660698,1.067444876783398,-0.0,-0.0
0.005123138427734375,-0.044294371128662746,0.6868390936140969,0.5097276264591422,-0.0,-0.0
0.007803201675415039,-0.04199336483626581,0.9151140611886746,0.30220492866407156,-0.0,-0.0
0.01047968864440918,-0.039308857495134575,0.9580834668497715,0.26225680933852047,-0.0,-0.0
0.012912273406982422,-0.03624084910527081,0.970168612191955,0.18028534370946758,-0.0,-0.0
0.015594959259033203,-0.03317284071540527,1.199786373693442,0.26018158236056976,-0.0,-0.0
0.018071651458740234,-0.030488333374274035,1.2978103303578195,0.11543450064850802,-0.0,-0.0
0.02040410041809082,-0.0281873270818771,0.9473411154344973,0.2570687418936437,-0.0,-0.0
0.022736310958862305,-0.025119318692013337,1.2588693064774503,0.21815823605706797,-0.0,-0.0
0.02518773078918457,-0.0224348113508821,0.8103761348897507,0.44124513618676886,-0.0,-0.0
0.027983903884887695,-0.01936680296101656,0.9903105210955943,0.48119325551231995,-0.0,-0.0
0.030809879302978516,-0.017065796668619626,0.9782253757534107,0.49675745784695025,-0.0,-0.0
0.03304910659790039,-0.015148291424953442,0.8842298008697611,0.4754863813229555,-0.0,-0.0
0.03558850288391113,-0.012847285132556507,0.7982909895475672,0.3981841763942917,-0.0,-0.0
0.03805422782897949,-0.010929779888890323,0.8573739223315755,0.5896238651102479,-0.0,-0.0
0.04075932502746582,-0.009012274645225915,0.7324940871290124,0.22697795071335847,-0.0,-0.0
0.04349970817565918,-0.007094769401561507,0.6989242389562804,0.4199740596627741,-0.0,-0.0
0.045976877212524414,-0.005560765206629625,0.5270466163118925,0.42412451361867554,-0.0,-0.0
0.048601388931274414,-0.004026761011695967,0.6062714579995401,0.5476005188067461,-0.0,-0.0
0.050975799560546875,-0.0032597589142309147,0.42230869001296867,0.307911802853436,-0.0,-0.0
0.05305027961730957,-0.0021092557680315593,0.5498741130693503,0.33540856031128286,-0.0,-0.0
0.055673837661743164,-0.0005752515730996777,0.37531090257114386,0.012191958495460398,-0.0,-0.0
0.0584108829498291,0.00019175052436715134,0.4276798657206058,0.012191958495460398,-0.0,-0.0
0.060685157775878906,0.0013422536705647303,0.5377889677271668,0.09571984435797631,-0.0,-0.0
0.06313204765319824,0.0021092557680315593,0.3296559090562283,0.19896238651102394,-0.0,-0.0
0.06569600105285645,0.0032597589142309147,0.29474326695658704,0.13929961089494114,-0.0,-0.0
0.06816840171813965,0.003643259962963441,0.25983062485694575,-0.04435797665369634,-0.0,-0.0
0.07049989700317383,0.004026761011695967,0.1738918135347518,-0.011673151750972721,-0.0,-0.0
0.07311391830444336,0.004793763109162796,0.3591973754482325,-0.007522697795071309,-0.0,-0.0
0.07585644721984863,0.005177264157895323,0.21954680704966734,-0.005447470817120603,-0.0,-0.0
0.07858133316040039,0.005177264157895323,-0.004699778744182481,0.008041504539558986,-0.0,-0.0
0.08139991760253906,0.005560765206629625,0.03289845120927737,-0.004928664072632927,-0.0,-0.0
0.08402037620544434,0.005560765206629625,0.08392462043183002,0.10972762645914358,-0.0,-0.0
0.08605337142944336,0.005560765206629625,0.0651255054551001,0.03450064850843049,-0.0,-0.0
0.08878612518310547,0.005560765206629625,-0.19000534065766317,-0.01789883268482484,-0.0,-0.0
0.09145331382751465,0.005560765206629625,0.16852063782711468,-0.06614785992217875,-0.0,-0.0
0.09410691261291504,0.005560765206629625,-0.18597695887693533,-0.10453955901426681,-0.0,-0.0
0.09618806838989258,0.005560765206629625,-0.03424124513618665,-0.19844357976653626,-0.0,-0.0
0.09822630882263184,0.005560765206629625,0.10138094148165067,-0.14085603112840417,-0.0,-0.0
0.10087418556213379,0.005560765206629625,0.24505989166094366,-0.20103761348897464,-0.0,-0.0
0.10358643531799316,0.005560765206629625,-0.2020904859998467,-0.36757457846952235,-0.0,-0.0
0.10622930526733398,0.005560765206629625,-0.08929579613946714,-0.27263294422827755,-0.0,-0.0
0.10895657539367676,0.005560765206629625,-0.0718394750896465,-0.2617380025940328,-0.0,-0.0
0.11170029640197754,0.005560765206629625,0.10809491111619707,-0.28767833981842017,-0.0,-0.0
0.11444640159606934,0.005177264157895323,-0.14569314106965692,-0.15642023346303446,-0.0,-0.0
0.11710786819458008,0.005177264157895323,-0.05035477225909801,-0.29442282749675996,-0.0,-0.0
0.11960744857788086,0.005560765206629625,0.17657740138857037,-0.4132295719844379,-0.0,-0.0
0.12168693542480469,0.005560765206629625,0.1873197528038446,-0.3976653696498076,-0.0,-0.0
0.12444067001342773,0.005177264157895323,0.10406652933546923,-0.42464332036316677,-0.0,-0.0
0.1272568702697754,0.005560765206629625,0.11078049897001563,-0.31932555123216844,-0.0,-0.0
0.13005876541137695,0.005177264157895323,-0.020813305867093845,-0.24876783398184088,-0.0,-0.0
0.13219976425170898,0.005177264157895323,0.0020141908903639205,-0.278339818417642,-0.0,-0.0
0.13424420356750488,0.005177264157895323,0.0060425726710917615,-0.24098573281452573,-0.0,-0.0
0.1369326114654541,0.005177264157895323,0.22357518883039518,-0.24098573281452573,-0.0,-0.0
0.13971424102783203,0.005177264157895323,-0.11883726253147131,-0.3935149156939062,-0.0,-0.0
0.14240336418151855,0.004793763109162796,-0.24103150988021582,-0.3660181582360593,-0.0,-0.0
0.1451723575592041,0.004793763109162796,0.054383154039825854,-0.29079118028534623,-0.0,-0.0
0.14797592163085938,0.004793763109162796,-0.09735255970092282,-0.32140077821011914,-0.0,-0.0
0.1506662368774414,0.004793763109162796,-0.24640268558785294,-0.3359273670557741,-0.0,-0.0
0.15335893630981445,0.004793763109162796,0.061097123674372256,-0.2871595330739325,-0.0,-0.0
0.1556992530822754,0.00441026206043027,-0.25311665522239934,-0.29494163424124764,-0.0,-0.0
0.15777087211608887,0.00441026206043027,-0.03155565728236809,-0.23164721141374756,-0.0,-0.0
0.15994048118591309,0.004026761011695967,-0.23834592202639726,-0.2508430609597916,-0.0,-0.0
0.1624748706817627,0.00441026206043027,0.22491798275730446,-0.3976653696498076,-0.0,-0.0
0.16496682167053223,0.004026761011695967,0.22491798275730446,-0.31880674448768076,-0.0,-0.0
0.16753721237182617,0.003643259962963441,-0.04766918440527945,-0.35460440985733044,-0.0,-0.0
0.1701056957244873,0.003643259962963441,-0.07721065079728362,-0.3468223086900153,-0.0,-0.0
0.17278432846069336,0.003643259962963441,-0.0852674143587393,-0.3317769130998727,-0.0,-0.0
0.1755053997039795,0.0032597589142309147,-0.055725947966735134,-0.27263294422827755,-0.0,-0.0
0.1782398223876953,0.0032597589142309147,-0.10943770504310635,-0.256549935149156,-0.0,-0.0
0.18134713172912598,0.0028762578654983884,-0.004699778744182481,-0.11906614785992176,-0.0,-0.0
0.184220552444458,0.0024927568167640857,-0.1403219653620198,-0.12996108949416296,-0.0,-0.0
0.18703675270080566,0.0021092557680315593,0.03692683299000521,-0.16523994811932496,-0.0,-0.0
0.19010162353515625,0.0021092557680315593,0.011413748378728883,-0.131517509727626,-0.0,-0.0
0.19286179542541504,0.001725754719299033,-0.15643549248493116,-0.13670557717250276,-0.0,-0.0
0.19588756561279297,0.001725754719299033,-0.055725947966735134,-0.15849546044098517,-0.0,-0.0
0.19903898239135742,0.0013422536705647303,-0.10406652933546923,-0.04280155642023331,-0.0,-0.0
0.2017831802368164,0.000958752621832204,0.015442130159456724,-0.10453955901426681,-0.0,-0.0
0.2046506404876709,0.000958752621832204,-0.22357518883039518,-0.14967574578469467,-0.0,-0.0
0.20767617225646973,0.000958752621832204,0.08258182650492074,-0.25343709468222997,-0.0,-0.0
0.21072149276733398,0.0005752515730996777,0.24640268558785294,-0.0671854734111541,-0.0,-0.0
0.21369576454162598,0.00019175052436715134,-0.28131532768749423,-0.1865110246433197,-0.0,-0.0
0.21637773513793945,0.00019175052436715134,-0.08123903257801146,-0.07133592736705552,-0.0,-0.0
0.2191143035888672,0.00019175052436715134,-0.12152285038528987,-0.17613488975356617,-0.0,-0.0
0.22188711166381836,-0.00019175052436715134,0.10943770504310635,-0.0298313878080414,-0.0,-0.0
0.22464990615844727,0.00019175052436715134,-0.2490882734416715,-0.18910505836575808,-0.0,-0.0
0.22736787796020508,-0.00019175052436715134,-0.07452506294346506,-0.018417639429312516,-0.0,-0.0
0.23019623756408691,-0.00019175052436715134,-0.1255512321660177,-0.03450064850843049,-0.0,-0.0
0.23285317420959473,-0.00019175052436715134,0.10540932326237851,-0.11128404669260661,-0.0,-0.0
0.2356407642364502,-0.00019175052436715134,-0.019470511940184565,-0.09312581063553793,-0.0,-0.0
0.2383887767791748,-0.00019175052436715134,0.09466697184710426,-0.0827496757457844,-0.0,-0.0
0.24114489555358887,-0.00019175052436715134,-0.07989623865110218,-0.08171206225680905,-0.0,-0.0
0.24391841888427734,-0.00019175052436715134,-0.019470511940184565,-0.2824902723735434,-0.0,-0.0
0.24660086631774902,-0.00019175052436715134,0.14435034714274764,-0.12944228274967529,-0.0,-0.0
0.24934625625610352,-0.00019175052436715134,0.008728160524910322,-0.09364461738002561,-0.0,-0.0
0.2523934841156006,-0.00019175052436715134,-0.1403219653620198,-0.13463035019455205,-0.0,-0.0
0.25550150871276855,-0.00019175052436715134,-0.126894026092927,-0.1470817120622563,-0.0,-0.0
0.25809717178344727,-0.00019175052436715134,0.04229800869764233,0.02360570687418928,-0.0,-0.0
0.26117873191833496,-0.00019175052436715134,-0.06915388723582794,-0.040726329442282605,-0.0,-0.0
0.2640392780303955,-0.00019175052436715134,0.06378271152819082,-0.04539559014267169,-0.0,-0.0
0.26702070236206055,-0.00019175052436715134,-0.09600976577401354,-0.05940337224383896,-0.0,-0.0
0.27002382278442383,0.00019175052436715134,0.29340047302967776,0.021530479896238575,-0.0,-0.0
0.27284908294677734,-0.00019175052436715134,-0.10809491111619707,-0.2176394293125803,-0.0,-0.0
0.27584123611450195,-0.00019175052436715134,-0.053040360112916574,-0.21400778210116655,-0.0,-0.0
0.2788872718811035,0.00019175052436715134,-0.17792019531547965,-0.09883268482490237,-0.0,-0.0
0.2817513942718506,0.00019175052436715134,0.16180666819256828,0.012191958495460398,-0.0,-0.0
0.28470492362976074,0.00019175052436715134,-0.030212863355458808,0.15953307392996052,-0.0,-0.0
0.28776049613952637,0.00019175052436715134,0.06378271152819082,-0.05214007782101149,-0.0,-0.0
0.29143381118774414,0.0005752515730996777,0.15240711070420332,0.008560311284046662,-0.0,-0.0
0.2949032783508301,0.00019175052436715134,0.11212329289692491,-0.13929961089494114,-0.0,-0.0
0.29850268363952637,0.00019175052436715134,-0.09600976577401354,-0.1335927367055767,-0.0,-0.0
0.30098724365234375,0.0005752515730996777,0.07989623865110218,-0.054215304798962194,-0.0,-0.0
0.304309606552124,0.00019175052436715134,-0.25983062485694575,-0.14137483787289185,-0.0,-0.0
0.3076941967010498,0.0005752515730996777,0.062439917601281536,-0.16731517509727567,-0.0,-0.0
0.31056785583496094,0.0005752515730996777,0.3873960479133274,-0.12736705577172458,-0.0,-0.0
0.31357502937316895,0.0005752515730996777,0.10406652933546923,-0.1533073929961084,-0.0,-0.0
0.3180391788482666,0.000958752621832204,0.04632639047837017,-0.1159533073929957,-0.0,-0.0
0.32167673110961914,0.000958752621832204,-0.016784924086366004,-0.1424124513618672,-0.0,-0.0
0.32473182678222656,0.000958752621832204,0.061097123674372256,-0.06459143968871572,-0.0,-0.0
0.3292348384857178,0.0013422536705647303,0.03289845120927737,-0.11335927367055731,-0.0,-0.0
0.33327674865722656,0.0013422536705647303,-0.0852674143587393,0.024124513618676957,-0.0,-0.0
0.33766937255859375,0.001725754719299033,0.04498359655146089,-0.031906614785992105,-0.0,-0.0
0.34249281883239746,0.001725754719299033,-0.11212329289692491,-0.1730220492866401,-0.0,-0.0
0.3463752269744873,0.0013422536705647303,0.07452506294346506,0.00596627756160828,-0.0,-0.0
0.3497748374938965,0.0013422536705647303,-0.1738918135347518,-0.28145265888456805,-0.0,-0.0
0.3539164066314697,0.0013422536705647303,-0.027527275501640247,-0.10817120622568055,-0.0,-0.0
0.3567640781402588,0.001725754719299033,0.14972152285038476,-0.21348897535667888,-0.0,-0.0
0.3600928783416748,0.0013422536705647303,-0.08795300221255786,-0.16523994811932496,-0.0,-0.0
0.3646719455718994,0.001725754719299033,-0.059754329747462975,-0.09053177691309955,-0.0,-0.0
0.36899423599243164,0.0013422536705647303,0.08795300221255786,-0.22542153047989544,-0.0,-0.0
0.37366700172424316,0.0013422536705647303,0.1873197528038446,0.013748378728923427,-0.0,-0.0
0.3766608238220215,0.0013422536705647303,0.19806210421911885,-0.17613488975356617,-0.0,-0.0
0.3791048526763916,0.0013422536705647303,-0.018127718013275285,-0.1335927367055767,-0.0,-0.0
0.3819749355316162,0.0013422536705647303,0.13092240787365483,-0.17821011673151688,-0.0,-0.0
0.38557863235473633,0.0013422536705647303,-0.012756542305638163,-0.166796368352788,-0.0,-0.0
0.3889737129211426,0.0013422536705647303,0.19134813458457245,-0.012710765239948074,-0.0,-0.0
0.3922276496887207,0.000958752621832204,-0.003356984817273201,-0.1268482490272369,-0.0,-0.0
0.395916223526001,0.0013422536705647303,0.061097123674372256,-0.04539559014267169,-0.0,-0.0
0.3983306884765625,0.000958752621832204,-0.24640268558785294,-0.11076523994811893,-0.0,-0.0
0.40076637268066406,0.0013422536705647303,0.2074616617074838,-0.08482490272373511,-0.0,-0.0
0.4044322967529297,0.000958752621832204,0.05035477225909801,0.09364461738002561,-0.0,-0.0
0.4091017246246338,0.000958752621832204,-0.020813305867093845,-0.07652399481193228,-0.0,-0.0
0.4129157066345215,0.000958752621832204,-0.28131532768749423,-0.22594033722438311,-0.0,-0.0
0.41687583923339844,0.000958752621832204,-0.15509269855802188,-0.1688715953307387,-0.0,-0.0
0.42169833183288574,0.000958752621832204,0.1886625467307539,-0.2394293125810627,-0.0,-0.0
0.4258077144622803,0.000958752621832204,-0.1537499046311126,-0.021530479896238575,-0.0,-0.0
0.42981529235839844,0.000958752621832204,0.003356984817273201,-0.2555123216601807,-0.0,-0.0
0.43283748626708984,0.000958752621832204,0.2826581216144035,-0.13463035019455205,-0.0,-0.0
0.4368605613708496,0.000958752621832204,-0.015442130159456724,-0.03657587548638119,-0.0,-0.0
0.44161128997802734,0.000958752621832204,0.24103150988021582,-0.21452658884565423,-0.0,-0.0
0.44574451446533203,0.000958752621832204,-0.2759441519798571,-0.1994811932555116,-0.0,-0.0
0.45068955421447754,0.000958752621832204,-0.12957961394674555,-0.13514915693903973,-0.0,-0.0
0.45529913902282715,0.000958752621832204,0.06781109330891866,-0.2217898832684817,-0.0,-0.0
0.4591996669769287,0.000958752621832204,-0.12018005645838059,-0.15019455252918235,-0.0,-0.0
0.46328139305114746,0.000958752621832204,-0.03558403906309593,-0.15953307392996052,-0.0,-0.0
0.46790122985839844,0.000958752621832204,-0.07452506294346506,-0.052658884565499164,-0.0,-0.0
0.4723079204559326,0.000958752621832204,-0.026184481574730967,-0.1092088197146559,-0.0,-0.0
0.47570061683654785,0.000958752621832204,-0.10540932326237851,-0.013748378728923427,-0.0,-0.0
0.4796285629272461,0.0013422536705647303,0.2625162127107643,0.02827496757457837,-0.0,-0.0
0.4843604564666748,0.0013422536705647303,0.07318226901655578,-0.1382619974059658,-0.0,-0.0
0.48843955993652344,0.0013422536705647303,0.007385366598001042,-0.12581063553826155,-0.0,-0.0
0.49188756942749023,0.0013422536705647303,-0.20611886778057453,-0.16160830090791123,-0.0,-0.0
0.4965388774871826,0.0013422536705647303,0.07452506294346506,-0.19273670557717182,-0.0,-0.0
0.5004661083221436,0.001725754719299033,0.06378271152819082,-0.1092088197146559,-0.0,-0.0
0.5036270618438721,0.001725754719299033,0.05169756618600729,-0.1797665369649799,-0.0,-0.0
0.5064816474914551,0.001725754719299033,0.03826962691691449,-0.2108949416342405,-0.0,-0.0
0.5095255374908447,0.001725754719299033,0.23968871595330654,-0.09935149156939005,-0.0,-0.0
0.512122392654419,0.001725754719299033,0.14569314106965692,-0.09987029831387773,-0.0,-0.0
0.5148696899414062,0.001725754719299033,-0.1873197528038446,-0.11439688715953267,-0.0,-0.0
0.5177769660949707,0.0013422536705647303,-0.06915388723582794,-0.07444876783398158,-0.0,-0.0
0.5204746723175049,0.001725754719299033,0.0020141908903639205,-0.11647211413748337,-0.0,-0.0
0.5229344367980957,0.001725754719299033,0.21417563134203021,-0.28404669260700643,-0.0,-0.0
0.5258142948150635,0.001725754719299033,0.20611886778057453,-0.12269779507133549,-0.0,-0.0
0.5289735794067383,0.001725754719299033,0.13897917143511052,0.0023346303501945442,-0.0,-0.0
0.5310678482055664,0.0013422536705647303,-0.027527275501640247,-0.12632944228274923,-0.0,-0.0
0.5339512825012207,0.0013422536705647303,-0.061097123674372256,-0.30376134889753814,-0.0,-0.0
0.5381691455841064,0.0013422536705647303,-0.04364080262455161,-0.03968871595330725,-0.0,-0.0
0.5426468849182129,0.0013422536705647303,-0.04364080262455161,-0.0739299610894939,-0.0,-0.0
0.5463337898254395,0.0013422536705647303,0.08123903257801146,-0.2918287937743216,-0.0,-0.0
0.5490922927856445,0.0013422536705647303,-0.014099336232547444,-0.23216601815823523,-0.0,-0.0
0.5519223213195801,0.0013422536705647303,-0.10809491111619707,-0.2238651102464324,-0.0,-0.0
0.5559272766113281,0.0013422536705647303,-0.019470511940184565,-0.13981841763942882,-0.0,-0.0
0.5598595142364502,0.0013422536705647303,-0.04229800869764233,-0.18080415045395526,-0.0,-0.0
0.5633752346038818,0.0013422536705647303,0.057068741893644415,-0.05369649805447452,-0.0,-0.0
0.566180944442749,0.0013422536705647303,0.1953765163653003,0.011673151750972721,-0.0,-0.0
0.56943678855896,0.000958752621832204,-0.17926298924238893,0.07652399481193228,-0.0,-0.0
0.5722389221191406,0.0013422536705647303,-0.11078049897001563,-0.1465629053177686,-0.0,-0.0
0.5750086307525635,0.000958752621832204,0.03558403906309593,-0.12269779507133549,-0.0,-0.0
0.5777943134307861,0.000958752621832204,0.12420843823910843,-0.08690012970168581,-0.0,-0.0
0.580305814743042,0.000958752621832204,-0.10272373540855995,-0.2824902723735434,-0.0,-0.0
0.5829877853393555,0.000958752621832204,-0.2007476920729374,-0.15953307392996052,-0.0,-0.0
0.5856368541717529,0.000958752621832204,-0.19269092851148173,-0.22490272373540776,-0.0,-0.0
0.5882070064544678,0.000958752621832204,-0.0651255054551001,-0.1818417639429306,-0.0,-0.0
0.5909755229949951,0.000958752621832204,0.2920576791027685,-0.02827496757457837,-0.0,-0.0
0.5934703350067139,0.000958752621832204,-0.03826962691691449,-0.08015564202334602,-0.0,-0.0
0.5963516235351562,0.000958752621832204,-0.16314946211947756,-0.12581063553826155,-0.0,-0.0
0.5989069938659668,0.000958752621832204,-0.21417563134203021,-0.008041504539558986,-0.0,-0.0
0.6017825603485107,0.0005752515730996777,-0.17657740138857037,-0.0718547341115432,-0.0,-0.0
0.6045761108398438,0.000958752621832204,0.061097123674372256,-0.01789883268482484,-0.0,-0.0
0.6078386306762695,0.0005752515730996777,-0.13629358358129195,-0.17717250324254152,-0.0,-0.0
0.6120805740356445,0.0005752515730996777,0.0651255054551001,-0.0671854734111541,-0.0,-0.0
0.6153731346130371,0.000958752621832204,0.08929579613946714,-0.14345006485084255,-0.0,-0.0
0.6188945770263672,0.000958752621832204,-0.04498359655146089,-0.1470817120622563,-0.0,-0.0
0.6217153072357178,0.000958752621832204,0.018127718013275285,-0.16108949416342355,-0.0,-0.0
0.6251733303070068,0.000958752621832204,-0.25983062485694575,-0.08793774319066117,-0.0,-0.0
0.6281027793884277,0.000958752621832204,-0.13092240787365483,-0.13047989623865064,-0.0,-0.0
0.6302452087402344,0.000958752621832204,0.008728160524910322,-0.07237354085603087,-0.0,-0.0
0.6325252056121826,0.000958752621832204,-0.04095521477073305,-0.2482490272373532,-0.0,-0.0
0.6352612972259521,0.000958752621832204,-0.03692683299000521,-0.16835278858625102,-0.0,-0.0
0.639047384262085,0.000958752621832204,-0.0986953536278321,-0.06614785992217875,-0.0,-0.0
0.6432070732116699,0.0005752515730996777,-0.19134813458457245,-0.042282749675745634,-0.0,-0.0
0.6461596488952637,0.000958752621832204,0.07049668116273722,-0.09468223086900096,-0.0,-0.0
0.6483132839202881,0.000958752621832204,-0.018127718013275285,-0.20985732814526514,-0.0,-0.0
0.6517245769500732,0.000958752621832204,0.10138094148165067,-0.20311284046692535,-0.0,-0.0
0.6562814712524414,0.000958752621832204,-0.22760357061112302,-0.10661478599221752,-0.0,-0.0
