time,position,velocity,torque,position_ref,velocity_ref
2.384185791015625e-07,-0.07689196027097012,-0.11615167467765275,-0.00025940337224383825,-0.0,-0.0
0.0022881031036376953,-0.07689196027097012,0.12152285038528987,0.8147859922178995,-0.0,-0.0
0.00431060791015625,-0.07574145712477076,0.6693827725642763,0.842801556420234,-0.0,-0.0
0.006415128707885742,-0.07420745292983888,0.8439459830624827,0.6700389105058377,-0.0,-0.0
0.008363485336303711,-0.07228994768617447,0.9809109636072293,0.542931258106357,-0.0,-0.0
0.01030421257019043,-0.06960544034504323,1.2682688639658153,0.5434500648508447,-0.0,-0.0
0.012304306030273438,-0.0665374319551777,1.5327992675669506,0.5616083009079134,-0.0,-0.0
0.014219999313354492,-0.06346942356531393,1.7006485084306107,0.42775616083008927,-0.0,-0.0
0.016219377517700195,-0.05963441307798334,1.6966201266498828,0.5533073929961105,-0.0,-0.0
0.018218994140625,-0.05579940259065452,2.013519493400473,0.6420233463035032,-0.0,-0.0
0.02012324333190918,-0.051580891054591405,2.1303425650415804,0.6923476005188078,-0.0,-0.0
0.02222919464111328,-0.04659537742106146,2.4002441443503457,1.0036316472114137,-0.0,-0.0
0.02422499656677246,-0.04122636273879898,2.6191195544365584,1.033722438391699,-0.0,-0.0
0.0263674259185791,-0.03547384700780398,2.7386282139314844,0.914915693904021,-0.0,-0.0
0.028520822525024414,-0.029721331276808982,2.718486305027845,0.786770428015565,-0.0,-0.0
0.03043961524963379,-0.024352316594546508,2.774883649958035,0.5403372243839186,-0.0,-0.0
0.032302141189575195,-0.018983301912284034,2.698344396124206,0.27418936446173703,-0.0,-0.0
0.034255266189575195,-0.013997788278755863,2.8071107042038577,-0.00025940337224383825,-0.0,-0.0
0.03615093231201172,-0.009012274645225915,2.5868925001907357,-0.00025940337224383825,-0.0,-0.0
0.03804898262023926,-0.004026761011695967,2.4526131074998077,-0.0038910505836575737,-0.0,-0.0
0.03997063636779785,0.0005752515730996777,2.321019302662698,-0.00025940337224383825,-0.0,-0.0
0.04197192192077637,0.004793763109162796,2.1558556496528567,-0.00025940337224383825,-0.0,-0.0
0.04394793510437012,0.009012274645225915,1.860440985732815,-0.00025940337224383825,-0.0,-0.0
0.04602360725402832,0.012463784083822205,1.6966201266498828,-0.00025940337224383825,-0.0,-0.0
0.048040151596069336,0.015148291424953442,1.1877012283512585,-0.00025940337224383825,-0.0,-0.0
0.05004549026489258,0.017065796668619626,0.9285420004577674,-0.19169909208819647,-0.0,-0.0
0.051971435546875,0.01821629981481898,0.557930876630806,-0.2850843060959818,-0.0,-0.0
0.0538482666015625,0.01821629981481898,0.2289463645380323,-0.3245136186770452,-0.0,-0.0
0.055738210678100586,0.01821629981481898,-0.2088044556343931,-0.3494163424124537,-0.0,-0.0
0.05767464637756348,0.017065796668619626,-0.6384985122453628,-0.28404669260700643,-0.0,-0.0
0.05962324142456055,0.015531792473687744,-0.7230945296406546,-0.17405966277561546,-0.0,-0.0
0.0615534782409668,0.01361428723002156,-1.0023956664377849,-0.12010376134889711,-0.0,-0.0
0.06346797943115234,0.011313280937624626,-1.2306706340123625,-0.03709468223086887,-0.0,-0.0
0.06552696228027344,0.009012274645225915,-1.2642404821850945,-0.00025940337224383825,-0.0,-0.0
0.06756997108459473,0.006327767304094678,-1.2400701915007275,-0.00025940337224383825,-0.0,-0.0
0.06965208053588867,0.003643259962963441,-1.2749828336003688,-0.00025940337224383825,-0.0,-0.0
0.07172274589538574,0.001725754719299033,-1.0104524299992406,-0.00025940337224383825,-0.0,-0.0
0.0736238956451416,0.00019175052436715134,-0.753978789959568,-0.00025940337224383825,-0.0,-0.0
0.0755457878112793,-0.000958752621832204,-0.5109330891889812,-0.00025940337224383825,-0.0,-0.0
0.0775458812713623,-0.001725754719299033,-0.3108567940794984,-0.00025940337224383825,-0.0,-0.0
0.0794677734375,-0.0024927568167640857,-0.36188296330205105,0.07133592736705552,-0.0,-0.0
0.08146929740905762,-0.003643259962963441,-0.45722133211260996,0.2176394293125803,-0.0,-0.0
0.08346724510192871,-0.004026761011695967,-0.30145723659113344,0.24876783398184088,-0.0,-0.0
0.08546280860900879,-0.004793763109162796,-0.3028000305180427,0.3582360570687406,-0.0,-0.0
0.08756780624389648,-0.005560765206629625,-0.44379339284351715,0.5922178988326863,-0.0,-0.0
0.08967757225036621,-0.005944266255362152,-0.2490882734416715,0.6907911802853448,-0.0,-0.0
0.09170675277709961,-0.006711268352827204,-0.23297474631876014,0.6793774319066159,-0.0,-0.0
0.09372663497924805,-0.006711268352827204,-0.1255512321660177,0.6368352788586265,-0.0,-0.0
0.09562420845031738,-0.006711268352827204,0.11615167467765275,0.49883268482490095,-0.0,-0.0
0.09747552871704102,-0.005944266255362152,0.3873960479133274,0.43709468223086745,-0.0,-0.0
0.09939098358154297,-0.005944266255362152,0.22626077668421374,0.35356679636835153,-0.0,-0.0
0.10130453109741211,-0.005560765206629625,0.2544594491493086,0.43501945525291674,-0.0,-0.0
0.10325288772583008,-0.005177264157895323,0.14300755321583836,0.4977950713359256,-0.0,-0.0
0.10515809059143066,-0.004793763109162796,0.12018005645838059,0.4619974059662759,-0.0,-0.0
0.10714077949523926,-0.00441026206043027,0.2490882734416715,0.5009079118028517,-0.0,-0.0
0.10914015769958496,-0.004026761011695967,0.061097123674372256,0.4464332036316456,-0.0,-0.0
0.11117696762084961,-0.003643259962963441,0.23431754024566942,0.25343709468222997,-0.0,-0.0
0.11325287818908691,-0.0028762578654983884,0.26788738841840143,-0.00025940337224383825,-0.0,-0.0
0.11522030830383301,-0.0021092557680315593,0.261173418783855,-0.00025940337224383825,-0.0,-0.0
0.11715507507324219,-0.0013422536705647303,0.4693064774547935,-0.00025940337224383825,-0.0,-0.0
0.1192023754119873,-0.0005752515730996777,0.38873884184023666,-0.00025940337224383825,-0.0,-0.0
0.12114095687866211,0.00019175052436715134,0.47064927138170276,-0.008560311284046662,-0.0,-0.0
0.12321996688842773,0.000958752621832204,0.4276798657206058,-0.06251621271076502,-0.0,-0.0
0.1251533031463623,0.0013422536705647303,0.20477607385366525,-0.11232166018158196,-0.0,-0.0
0.12705135345458984,0.001725754719299033,0.2987716487373149,-0.09105058365758723,-0.0,-0.0
0.1290571689605713,0.0021092557680315593,0.04095521477073305,-0.07133592736705552,-0.0,-0.0
0.131195068359375,0.001725754719299033,-0.061097123674372256,-0.03294422827496746,-0.0,-0.0
0.13330769538879395,0.0013422536705647303,-0.29340047302967776,-0.06874189364461714,-0.0,-0.0
0.13530969619750977,0.0013422536705647303,0.026184481574730967,-0.10972762645914358,-0.0,-0.0
0.1372523307800293,0.000958752621832204,-0.06378271152819082,-0.02671854734111534,-0.0,-0.0
0.1392204761505127,0.000958752621832204,-0.2020904859998467,-0.0806744487678337,-0.0,-0.0
0.14125394821166992,0.000958752621832204,-0.2074616617074838,-0.16939040207522638,-0.0,-0.0
0.1432206630706787,0.0005752515730996777,-0.012756542305638163,-0.018417639429312516,-0.0,-0.0
0.1451554298400879,0.0005752515730996777,-0.04364080262455161,-0.14811932555123164,-0.0,-0.0
0.1470506191253662,0.0005752515730996777,-0.13495078965438267,-0.0827496757457844,-0.0,-0.0
0.14897704124450684,0.00019175052436715134,-0.30011444266422416,-0.13203631647211367,-0.0,-0.0
0.15100455284118652,0.00019175052436715134,-0.08392462043183002,-0.00025940337224383825,-0.0,-0.0
0.15310001373291016,-0.00019175052436715134,-0.2571450370031272,-0.00025940337224383825,-0.0,-0.0
0.15512490272521973,-0.00019175052436715134,-0.2840009155413128,-0.00025940337224383825,-0.0,-0.0
0.15722155570983887,-0.0005752515730996777,-0.0060425726710917615,-0.00025940337224383825,-0.0,-0.0
0.15922164916992188,-0.00019175052436715134,-0.020813305867093845,-0.00025940337224383825,-0.0,-0.0
0.16115498542785645,-0.00019175052436715134,-0.054383154039825854,-0.00025940337224383825,-0.0,-0.0
0.16312551498413086,-0.00019175052436715134,-0.03826962691691449,-0.00025940337224383825,-0.0,-0.0
0.16505217552185059,-0.0005752515730996777,-0.058411535820553695,-0.00025940337224383825,-0.0,-0.0
0.1669008731842041,-0.0005752515730996777,-0.14972152285038476,-0.00025940337224383825,-0.0,-0.0
0.16874027252197266,-0.0005752515730996777,-0.05169756618600729,-0.00025940337224383825,-0.0,-0.0
0.17068123817443848,-0.000958752621832204,-0.14972152285038476,-0.00025940337224383825,-0.0,-0.0
0.1727921962738037,-0.0005752515730996777,0.15240711070420332,-0.00025940337224383825,-0.0,-0.0
0.17479300498962402,-0.0005752515730996777,-0.04632639047837017,-0.00025940337224383825,-0.0,-0.0
0.17684674263000488,-0.00019175052436715134,0.11212329289692491,-0.00025940337224383825,-0.0,-0.0
0.17885041236877441,-0.0005752515730996777,0.11883726253147131,-0.00025940337224383825,-0.0,-0.0
0.18079614639282227,-0.0005752515730996777,0.08258182650492074,-0.00025940337224383825,-0.0,-0.0
0.18268084526062012,-0.00019175052436715134,0.0651255054551001,-0.00025940337224383825,-0.0,-0.0
0.18462896347045898,-0.00019175052436715134,0.0060425726710917615,-0.00025940337224383825,-0.0,-0.0
0.18655753135681152,-0.00019175052436715134,0.015442130159456724,-0.00025940337224383825,-0.0,-0.0
0.1884927749633789,-0.00019175052436715134,0.03424124513618665,-0.00025940337224383825,-0.0,-0.0
0.19039201736450195,0.00019175052436715134,0.04364080262455161,-0.00025940337224383825,-0.0,-0.0
0.19237947463989258,0.00019175052436715134,0.015442130159456724,-0.00025940337224383825,-0.0,-0.0
0.19436311721801758,0.00019175052436715134,0.0919813839932857,-0.0038910505836575737,-0.0,-0.0
0.19630742073059082,0.00019175052436715134,0.016784924086366004,-0.00025940337224383825,-0.0,-0.0
0.19830918312072754,0.00019175052436715134,-0.0718394750896465,-0.00025940337224383825,-0.0,-0.0
0.20027995109558105,0.00019175052436715134,0.1255512321660177,-0.00025940337224383825,-0.0,-0.0
0.20213103294372559,-0.00019175052436715134,-0.10809491111619707,-0.00025940337224383825,-0.0,-0.0
0.20407724380493164,0.00019175052436715134,0.018127718013275285,-0.0562905317769129,-0.0,-0.0
0.20599079132080078,-0.00019175052436715134,0.03155565728236809,-0.00025940337224383825,-0.0,-0.0
0.20787477493286133,-0.00019175052436715134,0.014099336232547444,-0.00025940337224383825,-0.0,-0.0
0.209794282913208,-0.00019175052436715134,-0.10406652933546923,-0.00025940337224383825,-0.0,-0.0
0.21170663833618164,-0.00019175052436715134,0.054383154039825854,-0.00025940337224383825,-0.0,-0.0
0.21370339393615723,-0.00019175052436715134,0.05169756618600729,-0.00025940337224383825,-0.0,-0.0
0.21574997901916504,-0.00019175052436715134,0.061097123674372256,-0.00025940337224383825,-0.0,-0.0
0.21788287162780762,-0.0005752515730996777,-0.0060425726710917615,-0.00025940337224383825,-0.0,-0.0
0.21985578536987305,-0.0005752515730996777,-0.09735255970092282,-0.00025940337224383825,-0.0,-0.0
0.22188353538513184,-0.0005752515730996777,0.028870069428549527,-0.00025940337224383825,-0.0,-0.0
0.22379326820373535,-0.0005752515730996777,-0.10809491111619707,-0.00025940337224383825,-0.0,-0.0
0.22574090957641602,-0.0005752515730996777,-0.18463416495002605,-0.00025940337224383825,-0.0,-0.0
0.22762608528137207,-0.0005752515730996777,-0.17792019531547965,-0.00025940337224383825,-0.0,-0.0
0.22957396507263184,-0.0005752515730996777,-0.04901197833218873,-0.00025940337224383825,-0.0,-0.0
0.23147130012512207,-0.0005752515730996777,0.022156099794003126,-0.00025940337224383825,-0.0,-0.0
0.23339271545410156,-0.0005752515730996777,-0.10809491111619707,-0.00025940337224383825,-0.0,-0.0
0.23539090156555176,-0.0005752515730996777,-0.04498359655146089,-0.00025940337224383825,-0.0,-0.0
0.23744606971740723,-0.0005752515730996777,0.04229800869764233,-0.00025940337224383825,-0.0,-0.0
0.2396104335784912,-0.0005752515730996777,0.10003814755474139,-0.00025940337224383825,-0.0,-0.0
0.24180817604064941,-0.0005752515730996777,0.1819485770962075,-0.00025940337224383825,-0.0,-0.0
0.24380278587341309,-0.00019175052436715134,0.06915388723582794,-0.00025940337224383825,-0.0,-0.0
0.2457420825958252,-0.0005752515730996777,0.020813305867093845,-0.00025940337224383825,-0.0,-0.0
0.24768543243408203,-0.00019175052436715134,-0.06781109330891866,-0.00025940337224383825,-0.0,-0.0
0.24952960014343262,-0.00019175052436715134,0.026184481574730967,-0.00025940337224383825,-0.0,-0.0
0.25139307975769043,-0.00019175052436715134,-0.08661020828564858,-0.00025940337224383825,-0.0,-0.0
0.253309965133667,-0.00019175052436715134,0.0986953536278321,-0.00025940337224383825,-0.0,-0.0
0.25522613525390625,-0.00019175052436715134,0.03826962691691449,-0.00025940337224383825,-0.0,-0.0
0.2572636604309082,-0.00019175052436715134,-0.03692683299000521,-0.00025940337224383825,-0.0,-0.0
0.25931715965270996,-0.00019175052436715134,0.059754329747462975,-0.00025940337224383825,-0.0,-0.0
0.2613718509674072,-0.00019175052436715134,0.09332417792019498,-0.00025940337224383825,-0.0,-0.0
0.26337766647338867,-0.00019175052436715134,-0.007385366598001042,-0.00025940337224383825,-0.0,-0.0
0.2653083801269531,-0.00019175052436715134,-0.027527275501640247,-0.00025940337224383825,-0.0,-0.0
0.2672231197357178,-0.00019175052436715134,-0.057068741893644415,-0.00025940337224383825,-0.0,-0.0
0.2691483497619629,-0.0005752515730996777,-0.07318226901655578,-0.00025940337224383825,-0.0,-0.0
0.2709925174713135,-0.0005752515730996777,-0.019470511940184565,-0.00025940337224383825,-0.0,-0.0
0.27289843559265137,-0.0005752515730996777,-0.11346608682383419,-0.00025940337224383825,-0.0,-0.0
0.27480030059814453,-0.0005752515730996777,-0.0020141908903639205,-0.00025940337224383825,-0.0,-0.0
0.27667760848999023,-0.0005752515730996777,0.04632639047837017,-0.00025940337224383825,-0.0,-0.0
0.2786111831665039,-0.0005752515730996777,-0.008728160524910322,-0.00025940337224383825,-0.0,-0.0
0.2806832790374756,-0.0005752515730996777,-0.10138094148165067,-0.00025940337224383825,-0.0,-0.0
0.28270506858825684,-0.0005752515730996777,-0.05035477225909801,-0.00025940337224383825,-0.0,-0.0
0.2848525047302246,-0.0005752515730996777,-0.03692683299000521,-0.00025940337224383825,-0.0,-0.0
0.2868688106536865,-0.0005752515730996777,0.10540932326237851,-0.00025940337224383825,-0.0,-0.0
0.28881120681762695,-0.0005752515730996777,0.03289845120927737,-0.00025940337224383825,-0.0,-0.0
0.2907850742340088,-0.000958752621832204,-0.10272373540855995,-0.00025940337224383825,-0.0,-0.0
0.2927091121673584,-0.0005752515730996777,-0.014099336232547444,-0.00025940337224383825,-0.0,-0.0
0.2946321964263916,-0.0005752515730996777,0.0986953536278321,-0.00025940337224383825,-0.0,-0.0
0.296558141708374,-0.0005752515730996777,-0.03692683299000521,-0.00025940337224383825,-0.0,-0.0
0.29847168922424316,-0.0005752515730996777,0.04632639047837017,-0.00025940337224383825,-0.0,-0.0
0.30037546157836914,-0.0005752515730996777,-0.2007476920729374,-0.00025940337224383825,-0.0,-0.0
0.30242419242858887,-0.0005752515730996777,0.03826962691691449,-0.00025940337224383825,-0.0,-0.0
0.30442190170288086,-0.0005752515730996777,0.018127718013275285,-0.00025940337224383825,-0.0,-0.0
0.3064539432525635,-0.0005752515730996777,-0.057068741893644415,-0.00025940337224383825,-0.0,-0.0
0.3083682060241699,-0.00019175052436715134,0.1255512321660177,-0.00025940337224383825,-0.0,-0.0
0.3103351593017578,-0.0005752515730996777,-0.028870069428549527,-0.00025940337224383825,-0.0,-0.0
0.31229066848754883,-0.0005752515730996777,-0.0020141908903639205,-0.00025940337224383825,-0.0,-0.0
0.3142237663269043,-0.00019175052436715134,0.0986953536278321,-0.00025940337224383825,-0.0,-0.0
0.3161182403564453,-0.00019175052436715134,0.23028915846494158,-0.00025940337224383825,-0.0,-0.0
0.3180558681488037,-0.00019175052436715134,-0.012756542305638163,-0.00025940337224383825,-0.0,-0.0
0.31995081901550293,-0.00019175052436715134,-0.04229800869764233,-0.00025940337224383825,-0.0,-0.0
0.32195377349853516,-0.00019175052436715134,0.0060425726710917615,-0.00025940337224383825,-0.0,-0.0
0.3240373134613037,-0.00019175052436715134,-0.004699778744182481,-0.00025940337224383825,-0.0,-0.0
0.32607007026672363,-0.00019175052436715134,-0.0919813839932857,-0.00025940337224383825,-0.0,-0.0
0.32809877395629883,-0.00019175052436715134,0.11212329289692491,-0.00025940337224383825,-0.0,-0.0
0.33005452156066895,-0.00019175052436715134,-0.011413748378728883,-0.00025940337224383825,-0.0,-0.0
0.33197689056396484,-0.00019175052436715134,-0.0006713969634546402,-0.00025940337224383825,-0.0,-0.0
0.33397841453552246,-0.00019175052436715134,0.012756542305638163,-0.00025940337224383825,-0.0,-0.0
0.33589720726013184,-0.0005752515730996777,-0.03826962691691449,-0.00025940337224383825,-0.0,-0.0
0.3377952575683594,-0.00019175052436715134,0.1806057831692982,-0.00025940337224383825,-0.0,-0.0
0.3397049903869629,-0.0005752515730996777,-0.1819485770962075,-0.00025940337224383825,-0.0,-0.0
0.34163475036621094,-0.0005752515730996777,-0.08795300221255786,-0.00025940337224383825,-0.0,-0.0
0.3436281681060791,-0.0005752515730996777,-0.0718394750896465,-0.00025940337224383825,-0.0,-0.0
0.34580039978027344,-0.0005752515730996777,-0.1336079957274734,-0.00025940337224383825,-0.0,-0.0
0.3478584289550781,-0.0005752515730996777,-0.04229800869764233,-0.00025940337224383825,-0.0,-0.0
0.3499312400817871,-0.0005752515730996777,-0.057068741893644415,-0.00025940337224383825,-0.0,-0.0
0.3519289493560791,-0.0005752515730996777,-0.12420843823910843,-0.00025940337224383825,-0.0,-0.0
0.35379552841186523,-0.00019175052436715134,-0.061097123674372256,-0.00025940337224383825,-0.0,-0.0
0.35570645332336426,-0.0005752515730996777,-0.19269092851148173,-0.00025940337224383825,-0.0,-0.0
0.35770654678344727,-0.0005752515730996777,0.011413748378728883,-0.00025940337224383825,-0.0,-0.0
0.3596792221069336,-0.00019175052436715134,0.160463874265659,-0.00025940337224383825,-0.0,-0.0
0.3615586757659912,-0.00019175052436715134,0.03558403906309593,-0.00025940337224383825,-0.0,-0.0
0.36347270011901855,-0.00019175052436715134,-0.04364080262455161,-0.00025940337224383825,-0.0,-0.0
0.36553311347961426,-0.00019175052436715134,-0.06646829938200938,-0.00025940337224383825,-0.0,-0.0
0.3676283359527588,-0.00019175052436715134,0.03155565728236809,-0.00025940337224383825,-0.0,-0.0
0.3697028160095215,-0.00019175052436715134,-0.027527275501640247,-0.00025940337224383825,-0.0,-0.0
0.3718385696411133,-0.00019175052436715134,0.054383154039825854,-0.00025940337224383825,-0.0,-0.0
0.37374401092529297,-0.00019175052436715134,-0.062439917601281536,-0.00025940337224383825,-0.0,-0.0
0.3757059574127197,-0.00019175052436715134,-0.03692683299000521,-0.00025940337224383825,-0.0,-0.0
0.37768030166625977,-0.00019175052436715134,-0.04498359655146089,-0.00025940337224383825,-0.0,-0.0
0.37962937355041504,-0.00019175052436715134,0.08123903257801146,-0.00025940337224383825,-0.0,-0.0
0.38158369064331055,-0.00019175052436715134,-0.0785534447241929,-0.00025940337224383825,-0.0,-0.0
0.38347291946411133,-0.00019175052436715134,-0.0852674143587393,-0.00025940337224383825,-0.0,-0.0
0.38533568382263184,-0.00019175052436715134,0.07318226901655578,-0.00025940337224383825,-0.0,-0.0
0.38736677169799805,-0.00019175052436715134,-0.055725947966735134,-0.00025940337224383825,-0.0,-0.0
0.38933444023132324,-0.00019175052436715134,-0.0006713969634546402,-0.00025940337224383825,-0.0,-0.0
0.39130067825317383,-0.00019175052436715134,0.07318226901655578,-0.00025940337224383825,-0.0,-0.0
0.39339542388916016,-0.00019175052436715134,0.03826962691691449,-0.00025940337224383825,-0.0,-0.0
0.3953094482421875,-0.00019175052436715134,0.0651255054551001,-0.00025940337224383825,-0.0,-0.0
0.3972311019897461,-0.00019175052436715134,0.1819485770962075,-0.00025940337224383825,-0.0,-0.0
0.39922642707824707,-0.00019175052436715134,-0.04498359655146089,-0.00025940337224383825,-0.0,-0.0
0.4012272357940674,-0.00019175052436715134,0.06378271152819082,-0.00025940337224383825,-0.0,-0.0
0.40326786041259766,-0.00019175052436715134,0.04632639047837017,-0.00025940337224383825,-0.0,-0.0
0.4051525592803955,-0.00019175052436715134,0.0020141908903639205,-0.00025940337224383825,-0.0,-0.0
0.4070568084716797,-0.00019175052436715134,-0.14300755321583836,-0.00025940337224383825,-0.0,-0.0
0.408980131149292,-0.00019175052436715134,0.028870069428549527,-0.00025940337224383825,-0.0,-0.0
