time,position,velocity,torque,position_ref,velocity_ref
7.152557373046875e-07,0.022818312399614626,0.07049668116273722,-0.14923323414969047,0.0,0.0
0.0023822784423828125,0.0224348113508821,-0.16327153429465113,-2.377660791943235,0.0,0.0
0.004686832427978516,0.021284308204682745,-0.49652857251850335,-2.2842755779354533,0.0,0.0
0.006849050521850586,0.02013380505848339,-0.6771953917753883,-2.088349736781872,0.0,0.0
0.00902414321899414,0.018599800863551508,-0.8371099412527663,-1.6745250629434665,0.0,0.0
0.011350154876708984,0.0166822956198871,-0.7461661707484559,-1.7752346074616625,0.0,0.0
0.013522624969482422,0.014764790376220915,-0.7437247272449845,-1.8704509040970478,0.0,0.0
0.015619993209838867,0.013230786181289034,-0.8291752498664842,-1.4108491645685532,0.0,0.0
0.01773238182067871,0.011313280937624626,-0.8499275196459912,-1.5262073701075778,0.0,0.0
0.019928932189941406,0.009395775693958441,-0.7406729228656452,-1.4419775692378138,0.0,0.0
0.02202010154724121,0.00786177149902656,-0.6985580224307633,-1.0373083085374262,0.0,0.0
0.02425694465637207,0.006327767304094678,-0.6540016784924099,-1.0373083085374262,0.0,0.0
0.026484966278076172,0.004793763109162796,-0.6002899214160387,-0.8761730373083054,0.0,0.0
0.028613805770874023,0.003643259962963441,-0.523384451056689,-1.0281528953994084,0.0,0.0
0.030936717987060547,0.0028762578654983884,-0.36163881895170746,-0.96223392080568,0.0,0.0
0.03296852111816406,0.001725754719299033,-0.3933775844968359,-1.0244907301442012,0.0,0.0
0.03501009941101074,0.0013422536705647303,-0.24261844815747224,-1.1508354314488471,0.0,0.0
0.03717470169067383,0.000958752621832204,-0.16693369954985826,-1.2112611581597648,0.0,0.0
0.03921031951904297,0.0005752515730996777,-0.04608224612802303,-1.4419775692378138,0.0,0.0
0.04129743576049805,0.0005752515730996777,0.05157549401083372,-1.520714122224767,0.0,0.0
0.043524742126464844,0.0005752515730996777,0.009460593575951748,-1.449301899748228,0.0,0.0
0.04583144187927246,0.0005752515730996777,-0.009460593575951748,-1.5078965438315421,0.0,0.0
0.0478513240814209,0.000958752621832204,0.04119935912108019,-1.3119707026779608,0.0,0.0
0.0499415397644043,0.0005752515730996777,-0.05035477225909801,-1.2552071412222503,0.0,0.0
0.05195736885070801,0.000958752621832204,0.011902037079423167,-1.1874570840009184,0.0,0.0
0.05418276786804199,0.000958752621832204,-0.016784924086366004,-1.1160448615243794,0.0,0.0
0.056401968002319336,0.000958752621832204,-0.06561379415579438,-1.1563286793316578,0.0,0.0
0.05853843688964844,0.000958752621832204,-0.126039520866712,-1.302815289539943,0.0,0.0
0.060750484466552734,0.000958752621832204,0.038757915617608774,-1.214923323414972,0.0,0.0
0.06273508071899414,0.0013422536705647303,0.014343480582894585,-1.3174639505607715,0.0,0.0
0.06487536430358887,0.0013422536705647303,0.08392462043183002,-1.2277409018081968,0.0,0.0
0.06709861755371094,0.0013422536705647303,-0.07415884641794435,-1.0940718699931367,0.0,0.0
0.06928730010986328,0.001725754719299033,0.09063859006637642,-1.0116731517509763,0.0,0.0
0.07130193710327148,0.0013422536705647303,0.0015259021896696368,-0.9915312428473371,0.0,0.0
0.0735166072845459,0.0013422536705647303,-0.033875028610665936,-1.0794232089723081,0.0,0.0
0.07554864883422852,0.0013422536705647303,0.06195162890058725,-0.9897001602197335,0.0,0.0
0.07755351066589355,0.0013422536705647303,-0.0814831769283586,-0.7461661707484524,0.0,0.0
0.0794668197631836,0.0013422536705647303,0.008850232700083893,-0.7882810711833343,0.0,0.0
0.08144927024841309,0.0013422536705647303,0.01617456321049815,-0.7241931792172096,0.0,0.0
0.08339858055114746,0.0013422536705647303,-0.008850232700083893,-0.7754634927901094,0.0,0.0
0.08530616760253906,0.000958752621832204,-0.000915541313801782,-0.7791256580453165,0.0,0.0
0.0872354507446289,0.000958752621832204,-0.025940337224383825,-0.7736324101625058,0.0,0.0
0.08928656578063965,0.000958752621832204,-0.0747692072938122,-0.7278553444724167,0.0,0.0
0.09133052825927734,0.000958752621832204,-0.1406881818875405,-0.8084229800869736,0.0,0.0
0.093505859375,0.000958752621832204,-0.016784924086366004,-0.693064774547949,0.0,0.0
0.0957956314086914,0.000958752621832204,-0.05401693751430514,-0.6948958571755526,0.0,0.0
0.09788298606872559,0.000958752621832204,-0.06866559853513365,-0.7315175097276239,0.0,0.0
0.0998384952545166,0.000958752621832204,-0.04608224612802303,-0.6802471961547241,0.0,0.0
0.1019902229309082,0.000958752621832204,0.06195162890058725,-0.7077134355687775,0.0,0.0
0.10408926010131836,0.000958752621832204,-0.11017013809414777,-0.6619363698786884,0.0,0.0
0.1062917709350586,0.000958752621832204,-0.08758678568703715,-0.6070038910505815,0.0,0.0
0.10839962959289551,0.0005752515730996777,-0.15777828641184044,-0.5648889906156995,0.0,0.0
0.11076521873474121,0.0005752515730996777,-0.07843137254901933,-0.5520714122224746,0.0,0.0
0.11304402351379395,0.00019175052436715134,-0.09185931181811213,-0.48615243762874627,0.0,0.0
0.11527323722839355,0.00019175052436715134,-0.11688410772869418,-0.5136186770427997,0.0,0.0
0.11746740341186523,0.00019175052436715134,-0.05401693751430514,-0.4586861982146928,0.0,0.0
0.11962342262268066,0.00019175052436715134,-0.10650797283894065,-0.4092469672693966,0.0,0.0
0.12176394462585449,-0.00019175052436715134,-0.12787060349431556,-0.39642938887617163,0.0,0.0
0.12376761436462402,-0.00019175052436715134,-0.011291676203555312,-0.41474021515220727,0.0,0.0
0.1260392665863037,-0.00019175052436715134,-0.06866559853513365,-0.4019226367589823,0.0,0.0
0.12837958335876465,-0.0005752515730996777,0.05523765926604085,-0.3817807278553431,0.0,0.0
0.13054132461547852,-0.0005752515730996777,0.02288853284504455,-0.30853742275120055,0.0,0.0
0.13268423080444336,-0.0005752515730996777,-0.020447089341573133,-0.3506523231860825,0.0,0.0
0.13482332229614258,-0.0005752515730996777,-0.023498893720912406,-0.3323414969100469,0.0,0.0
0.1370100975036621,-0.0005752515730996777,-0.021667811093308842,-0.3634699015793075,0.0,0.0
0.1391749382019043,-0.00019175052436715134,-0.06256198977645511,-0.3103685053788041,0.0,0.0
0.1411137580871582,-0.00019175052436715134,-0.06622415503166224,-0.26825360494392214,0.0,0.0
0.14313840866088867,-0.00019175052436715134,0.023498893720912406,-0.264591439688715,0.0,0.0
0.14519119262695312,-0.0005752515730996777,-0.02410925459678026,-0.22064545662622947,0.0,0.0
0.1472482681274414,-0.0005752515730996777,-0.12970168612191912,-0.24078736552986868,0.0,0.0
0.14941024780273438,-0.00019175052436715134,-0.00579842832074462,-0.23895628290226512,0.0,0.0
0.15154790878295898,-0.0005752515730996777,-0.023498893720912406,-0.23346303501945442,0.0,0.0
0.1538529396057129,-0.0005752515730996777,0.04119935912108019,-0.2298008697642473,0.0,0.0
0.15604496002197266,-0.0005752515730996777,0.06927595941100151,-0.1840238040741582,0.0,0.0
0.15839314460754395,-0.0005752515730996777,0.047913328755626594,-0.19501029983977958,0.0,0.0
0.16056156158447266,-0.0005752515730996777,-0.08636606393530144,-0.12542915999084414,0.0,0.0
0.16283631324768066,-0.0005752515730996777,-0.06378271152819082,-0.10162508583199781,0.0,0.0
0.1650223731994629,-0.0005752515730996777,0.027161058976119534,-0.14190890363927622,0.0,0.0
0.1671903133392334,-0.0005752515730996777,-0.02532997634851597,-0.1474021515220869,0.0,0.0
0.16935133934020996,-0.0005752515730996777,0.03692683299000521,-0.11078049897001563,0.0,0.0
0.17144346237182617,-0.0005752515730996777,-0.06988632028686936,-0.09796292057679068,0.0,0.0
0.1736149787902832,-0.0005752515730996777,-0.06012054627298369,-0.07782101167315147,0.0,0.0
0.17591238021850586,-0.0005752515730996777,0.0015259021896696368,-0.07049668116273722,0.0,0.0
0.17818331718444824,-0.0005752515730996777,-0.1004043640802621,-0.04486152437628732,0.0,0.0
0.18060946464538574,-0.0005752515730996777,-0.05951018539711583,-0.024719615472648115,0.0,0.0
0.18279743194580078,-0.0005752515730996777,0.021667811093308842,0.011902037079423167,0.0,0.0
0.18496060371398926,-0.0005752515730996777,-0.010681315327687457,-0.06317235065232296,0.0,0.0
0.1870889663696289,-0.0005752515730996777,0.09430075532158355,-0.04486152437628732,0.0,0.0
0.189178466796875,-0.0005752515730996777,0.01495384145876244,-0.033875028610665936,0.0,0.0
0.19127345085144043,-0.0005752515730996777,0.054627298390172996,0.037537193865873064,0.0,0.0
0.19364070892333984,-0.0005752515730996777,0.04119935912108019,0.006408789196612474,0.0,0.0
0.195936918258667,-0.0005752515730996777,-0.10467689021133708,0.000915541313801782,0.0,0.0
0.19788265228271484,-0.0005752515730996777,-0.009460593575951748,0.03936827649347663,0.0,0.0
0.19994020462036133,-0.0005752515730996777,-0.05889982452124798,-0.008239871824216038,0.0,0.0
0.20196056365966797,-0.0005752515730996777,0.0357061112382695,0.05035477225909801,0.0,0.0
0.20385336875915527,-0.0005752515730996777,0.11261158159761919,0.03936827649347663,0.0,0.0
0.205794095993042,-0.0005752515730996777,-0.057068741893644415,0.0357061112382695,0.0,0.0
0.20773744583129883,-0.0005752515730996777,-0.006408789196612474,0.002746623941405346,0.0,0.0
0.2098538875579834,-0.0005752515730996777,0.04608224612802303,-0.006408789196612474,0.0,0.0
0.2120513916015625,-0.0005752515730996777,0.000915541313801782,0.05218585488670158,0.0,0.0
0.21399736404418945,-0.00019175052436715134,0.11871519035629774,0.07965209430075504,0.0,0.0
0.21590662002563477,-0.0005752515730996777,-0.06561379415579438,0.07782101167315147,0.0,0.0
0.2178640365600586,-0.0005752515730996777,-0.005188067444876765,0.0613412680247194,0.0,0.0
0.21993184089660645,-0.0005752515730996777,0.030823224231326662,0.10528725108720494,0.0,0.0
0.22193312644958496,-0.0005752515730996777,-0.11322194247348705,0.04119935912108019,0.0,0.0
0.22385025024414062,-0.0005752515730996777,-0.10833905546654421,0.05401693751430514,0.0,0.0
0.22577834129333496,-0.0005752515730996777,0.03204394598306237,0.015564202334630295,0.0,0.0
0.22797417640686035,-0.00019175052436715134,0.09002822919050857,-0.0613412680247194,0.0,0.0
0.22991704940795898,-0.0005752515730996777,0.036316472114137355,-0.006408789196612474,0.0,0.0
0.23177623748779297,-0.0005752515730996777,-0.029602502479590953,-0.06866559853513365,0.0,0.0
0.23363304138183594,-0.00019175052436715134,0.053406576638437286,-0.037537193865873064,0.0,0.0
0.2355647087097168,-0.0005752515730996777,-0.04486152437628732,-0.02655069810025168,0.0,0.0
0.23758149147033691,-0.00019175052436715134,-0.009460593575951748,0.008239871824216038,0.0,0.0
0.23955440521240234,-0.00019175052436715134,0.07598992904554791,-0.04486152437628732,0.0,0.0
0.24149322509765625,-0.00019175052436715134,-0.021057450217440987,-0.019226367589837423,0.0,0.0
0.24350810050964355,-0.00019175052436715134,0.0949111161974514,-0.03204394598306237,0.0,0.0
0.2456493377685547,-0.00019175052436715134,0.11139085984588348,-0.010070954451819603,0.0,0.0
0.24771475791931152,-0.00019175052436715134,-0.03936827649347663,-0.0357061112382695,0.0,0.0
0.2496631145477295,-0.00019175052436715134,-0.000915541313801782,-0.01739528496223386,0.0,0.0
0.251849889755249,-0.00019175052436715134,0.03814755474174092,-0.03936827649347663,0.0,0.0
0.25382375717163086,-0.00019175052436715134,0.016784924086366004,-0.0613412680247194,0.0,0.0
0.2559328079223633,-0.00019175052436715134,0.057068741893644415,-0.07598992904554791,0.0,0.0
0.2579319477081299,-0.00019175052436715134,-0.02288853284504455,-0.07965209430075504,0.0,0.0
0.2600235939025879,-0.00019175052436715134,0.04058899824521234,-0.03936827649347663,0.0,0.0
0.26204943656921387,-0.00019175052436715134,-0.03326466773479808,-0.10894941634241206,0.0,0.0
0.26397204399108887,-0.00019175052436715134,0.04730296787975874,-0.15655756466010473,0.0,0.0
0.2659289836883545,-0.00019175052436715134,0.11444266422522276,-0.05951018539711583,0.0,0.0
0.2678823471069336,-0.00019175052436715134,-0.0869764248111693,-0.0357061112382695,0.0,0.0
0.26978373527526855,0.00019175052436715134,0.022278171969176697,-0.07598992904554791,0.0,0.0
0.2717165946960449,-0.00019175052436715134,-0.044251163500419466,-0.09979400320439424,0.0,0.0
0.273601770401001,0.00019175052436715134,0.11139085984588348,-0.09796292057679068,0.0,0.0
0.27562570571899414,-0.00019175052436715134,-0.1394674601358048,-0.10894941634241206,0.0,0.0
0.277559757232666,-0.00019175052436715134,-0.01861600671396957,-0.11993591210803345,0.0,0.0
0.2796299457550049,-0.00019175052436715134,-0.012512397955291021,-0.1583886472877083,0.0,0.0
0.2816355228424072,-0.00019175052436715134,0.010070954451819603,-0.13641565575646553,0.0,0.0
0.2836120128631592,-0.00019175052436715134,-0.04852368963149445,-0.163881895170519,0.0,0.0
0.2856278419494629,-0.00019175052436715134,0.10162508583199781,-0.10345616845960137,0.0,0.0
0.2876088619232178,-0.00019175052436715134,-0.049134050507362304,-0.1528953994048976,0.0,0.0
0.2895371913909912,0.00019175052436715134,0.1406881818875405,-0.09430075532158355,0.0,0.0
0.2914557456970215,-0.00019175052436715134,-0.000915541313801782,-0.15655756466010473,0.0,0.0
0.29340195655822754,-0.00019175052436715134,0.0039673456931410556,-0.18585488670176176,0.0,0.0
0.2953915596008301,-0.00019175052436715134,0.002746623941405346,-0.07782101167315147,0.0,0.0
0.29729151725769043,-0.00019175052436715134,-0.03814755474174092,-0.12176699473563701,0.0,0.0
0.29918980598449707,-0.00019175052436715134,-0.013122758831158876,-0.09430075532158355,0.0,0.0
0.3012411594390869,-0.00019175052436715134,-0.06622415503166224,-0.08514534218356573,0.0,0.0
0.3032858371734619,-0.00019175052436715134,0.00457770656900891,-0.04119935912108019,0.0,0.0
0.30535316467285156,-0.00019175052436715134,0.024719615472648115,-0.1528953994048976,0.0,0.0
0.3074193000793457,-0.00019175052436715134,-0.08087281605249075,-0.17486839093614037,0.0,0.0
0.3093130588531494,0.00019175052436715134,0.07049668116273722,-0.12176699473563701,0.0,0.0
0.3112959861755371,-0.00019175052436715134,0.03265430685893023,-0.17486839093614037,0.0,0.0
0.31333374977111816,-0.00019175052436715134,0.05279621576256943,-0.20233463035019383,0.0,0.0
0.31537628173828125,-0.00019175052436715134,0.07721065079728362,-0.1272602426184477,0.0,0.0
0.317227840423584,0.00019175052436715134,0.10345616845960137,-0.19501029983977958,0.0,0.0
0.31919145584106445,-0.00019175052436715134,0.06073090714885154,-0.18951705195696888,0.0,0.0
0.3211359977722168,-0.00019175052436715134,-0.028381780727855244,-0.2041657129777974,0.0,0.0
0.3231821060180664,0.00019175052436715134,-0.02288853284504455,-0.1528953994048976,0.0,0.0
0.32521915435791016,0.00019175052436715134,0.02532997634851597,-0.1840238040741582,0.0,0.0
0.32727813720703125,0.00019175052436715134,-0.038757915617608774,-0.21332112611581522,0.0,0.0
0.329270601272583,0.00019175052436715134,-0.011291676203555312,-0.18768596932936532,0.0,0.0
0.331240177154541,0.00019175052436715134,-0.0039673456931410556,-0.18036163881895106,0.0,0.0
0.33318352699279785,0.00019175052436715134,0.06927595941100151,-0.25360494392309363,0.0,0.0
0.3351132869720459,0.00019175052436715134,-0.057068741893644415,-0.20050354772259027,0.0,0.0
0.33696651458740234,0.00019175052436715134,-0.023498893720912406,-0.2298008697642473,0.0,0.0
0.338824987411499,0.00019175052436715134,0.05523765926604085,-0.21698329137102235,0.0,0.0
0.3407106399536133,0.00019175052436715134,-0.06195162890058725,-0.28839551384756135,0.0,0.0
0.34288549423217773,0.00019175052436715134,0.0949111161974514,-0.25726710917830076,0.0,0.0
0.3453085422515869,0.00019175052436715134,-0.00457770656900891,-0.2920576791027685,0.0,0.0
0.3474302291870117,0.00019175052436715134,-0.06012054627298369,-0.2847333485923542,0.0,0.0
0.3495612144470215,0.00019175052436715134,-0.06317235065232296,-0.2957198443579756,0.0,0.0
0.35185670852661133,0.0005752515730996777,0.010070954451819603,-0.3323414969100469,0.0,0.0
0.3537726402282715,0.0005752515730996777,0.01617456321049815,-0.3121995880064077,0.0,0.0
0.3559608459472656,0.0005752515730996777,0.038757915617608774,-0.31952391851682194,0.0,0.0
0.3578627109527588,0.0005752515730996777,-0.010681315327687457,-0.306706340123597,0.0,0.0
0.36002087593078613,0.0005752515730996777,-0.021667811093308842,-0.3469901579308754,0.0,0.0
0.36199307441711426,0.0005752515730996777,0.04364080262455161,-0.3158617532616148,0.0,0.0
0.36409807205200195,0.0005752515730996777,0.019836728465705278,-0.35980773632410035,0.0,0.0
0.3660876750946045,0.0005752515730996777,0.07415884641794435,-0.33966582742046114,0.0,0.0
0.36821913719177246,0.000958752621832204,0.06378271152819082,-0.407415884641793,0.0,0.0
0.37033700942993164,0.000958752621832204,0.06073090714885154,-0.4220645456626215,0.0,0.0
0.3725917339324951,0.000958752621832204,0.10467689021133708,-0.45136186770427855,0.0,0.0
0.3745434284210205,0.000958752621832204,-0.021057450217440987,-0.44220645456626073,0.0,0.0
0.37662839889526367,0.000958752621832204,0.037537193865873064,-0.46601052872510706,0.0,0.0
0.3786189556121826,0.000958752621832204,0.046692607003890885,-0.47150377660791776,0.0,0.0
0.3806581497192383,0.000958752621832204,0.0021362630655374915,-0.46601052872510706,0.0,0.0
0.3825497627258301,0.0013422536705647303,0.0802624551766229,-0.478828107118332,0.0,0.0
0.384448766708374,0.000958752621832204,-0.003356984817273201,-0.43121995880063935,0.0,0.0
0.3863852024078369,0.000958752621832204,0.0747692072938122,-0.43671320668345004,0.0,0.0
0.3883793354034424,0.000958752621832204,-0.03997863736934448,-0.4989700160219712,0.0,0.0
0.39029645919799805,0.000958752621832204,-0.06073090714885154,-0.5154497596704033,0.0,0.0
0.3923773765563965,0.000958752621832204,0.05401693751430514,-0.4751659418631249,0.0,0.0
0.39438295364379883,0.000958752621832204,0.07110704203860507,-0.49713893339436765,0.0,0.0
0.3964042663574219,0.000958752621832204,0.04180971999694805,-0.5575646601052853,0.0,0.0
0.3982820510864258,0.0013422536705647303,0.028381780727855244,-0.5740444037537173,0.0,0.0
0.40018534660339355,0.000958752621832204,0.04730296787975874,-0.6051728084229779,0.0,0.0
0.4021189212799072,0.000958752621832204,-0.06988632028686936,-0.6106660563057886,0.0,0.0
0.40399718284606934,0.000958752621832204,-0.16327153429465113,-0.6198214694438064,0.0,0.0
0.4058544635772705,0.000958752621832204,0.05157549401083372,-0.6399633783474457,0.0,0.0
0.4077110290527344,0.000958752621832204,-0.021057450217440987,-0.6015106431677708,0.0,0.0
0.40979909896850586,0.000958752621832204,-0.02655069810025168,-0.6985580224307597,0.0,0.0
0.4119832515716553,0.000958752621832204,0.05767910276951227,-0.7571526665140738,0.0,0.0
0.4139728546142578,0.000958752621832204,-0.0802624551766229,-0.5868619821469423,0.0,0.0
0.41597509384155273,0.000958752621832204,0.10894941634241206,-0.6784161135271205,0.0,0.0
0.41782188415527344,0.0013422536705647303,-0.02532997634851597,-0.6967269398031561,0.0,0.0
0.41971373558044434,0.000958752621832204,-0.019836728465705278,-0.6143282215609958,0.0,0.0
0.4215710163116455,0.000958752621832204,0.036316472114137355,-0.7150377660791918,0.0,0.0
0.4234163761138916,0.000958752621832204,-0.005188067444876765,-0.7077134355687775,0.0,0.0
0.4253878593444824,0.0013422536705647303,0.047913328755626594,-0.663767452506292,0.0,0.0
0.42734694480895996,0.000958752621832204,-0.022278171969176697,-0.6674296177614991,0.0,0.0
0.4292411804199219,0.000958752621832204,-0.09552147707331926,-0.6436255436026528,0.0,0.0
0.4313476085662842,0.000958752621832204,-0.047913328755626594,-0.7186999313343989,0.0,0.0
0.43335914611816406,0.000958752621832204,0.10101472495612995,-0.6765850308995169,0.0,0.0
0.435413122177124,0.000958752621832204,-0.053406576638437286,-0.6948958571755526,0.0,0.0
0.4374101161956787,0.000958752621832204,0.05157549401083372,-0.6619363698786884,0.0,0.0
0.4392893314361572,0.000958752621832204,0.01739528496223386,-0.7150377660791918,0.0,0.0
0.4411909580230713,0.000958752621832204,0.027161058976119534,-0.8139162279697842,0.0,0.0
0.4432237148284912,0.000958752621832204,0.000915541313801782,-0.7003891050583633,0.0,0.0
0.4452211856842041,0.000958752621832204,0.0680552376592658,-0.80659189745937,0.0,0.0
0.4472165107727051,0.000958752621832204,-0.03997863736934448,-0.7278553444724167,0.0,0.0
