time,position,velocity,torque,position_ref,velocity_ref
2.384185791015625e-07,0.006711268352827204,-0.054383154039825854,-0.00025940337224383825,0.0,0.0
0.0023047924041748047,0.006327767304094678,-0.13763637750820124,-0.24565499351491482,0.0,0.0
0.0045969486236572266,0.005944266255362152,-0.18597695887693533,-0.32140077821011914,0.0,0.0
0.007069110870361328,0.005560765206629625,-0.33502708476386545,-0.41841763942931465,0.0,0.0
0.009490013122558594,0.005177264157895323,-0.27862973983367567,-0.3374837872892371,0.0,0.0
0.011773824691772461,0.00441026206043027,-0.3672541390096882,-0.30116731517509976,0.0,0.0
0.013944149017333984,0.0032597589142309147,-0.42230869001296867,-0.23424124513618594,0.0,0.0
0.016196250915527344,0.0024927568167640857,-0.3981383993286016,-0.16990920881971405,0.0,0.0
0.01842021942138672,0.001725754719299033,-0.304142824444952,-0.14863813229571932,0.0,0.0
0.020658016204833984,0.000958752621832204,-0.3242847333485912,-0.00025940337224383825,0.0,0.0
0.022860288619995117,0.00019175052436715134,-0.23834592202639726,-0.00025940337224383825,0.0,0.0
0.025120019912719727,-0.0005752515730996777,-0.19806210421911885,-0.00025940337224383825,0.0,0.0
0.02733612060546875,-0.000958752621832204,-0.17926298924238893,-0.00025940337224383825,0.0,0.0
0.029553890228271484,-0.0013422536705647303,-0.2544594491493086,0.19169909208819647,0.0,0.0
0.03175830841064453,-0.0024927568167640857,-0.6237277790493607,0.6861219195849557,0.0,0.0
0.03400397300720215,-0.004793763109162796,-0.9795681696803271,1.1260700389105054,0.0,0.0
0.036191701889038086,-0.006711268352827204,-0.8560311284046733,1.3071335927367045,0.0,0.0
0.03841757774353027,-0.008245272547759086,-0.6398413061722721,1.2287937743190653,0.0,0.0
0.04070687294006348,-0.009395775693958441,-0.46393530174715636,1.2635538261997397,0.0,0.0
0.0428309440612793,-0.010546278840157797,-0.5109330891889812,1.389623865110245,0.0,0.0
0.04484748840332031,-0.011696781986357152,-0.5122758831158905,1.6033722438391713,0.0,0.0
0.047106027603149414,-0.012847285132556507,-0.4464789806973357,1.7195849546044109,0.0,0.0
0.04926729202270508,-0.013230786181289034,-0.15643549248493116,1.5712062256809318,0.0,0.0
0.0514225959777832,-0.01361428723002156,-0.07049668116273722,1.386511024643319,0.0,0.0
0.05353188514709473,-0.013230786181289034,-0.020813305867093845,1.22775616083009,0.0,0.0
0.05556654930114746,-0.012847285132556507,0.21014724956130237,1.1193255512321656,0.0,0.0
0.057588815689086914,-0.012080283035089678,0.27460135805294783,1.0518806744487676,0.0,0.0
0.059763431549072266,-0.011313280937624626,0.5753871976806266,0.9242542153047992,0.0,0.0
0.061920166015625,-0.01016277779142527,0.6452124818799092,0.8116731517509734,0.0,0.0
0.06401228904724121,-0.008628773596493389,0.7123521782253732,0.7509727626459153,0.0,0.0
0.0660855770111084,-0.007478270450294033,0.6572976272220927,0.650324254215306,0.0,0.0
0.06811213493347168,-0.006327767304094678,0.6734111543450041,0.6607003891050596,0.0,0.0
0.07019543647766113,-0.004793763109162796,0.7190661478599196,0.5460440985732831,0.0,0.0
0.07234692573547363,-0.0032597589142309147,0.6599832150759113,0.15071335927367002,0.0,0.0
0.07444977760314941,-0.0021092557680315593,0.6693827725642763,0.010116731517509692,0.0,0.0
0.07653474807739258,-0.000958752621832204,0.505561913481344,-0.00025940337224383825,0.0,0.0
0.07848119735717773,-0.00019175052436715134,0.49750514991988837,-0.00025940337224383825,0.0,0.0
0.0805368423461914,0.0005752515730996777,0.2423743038071251,-0.00025940337224383825,0.0,0.0
0.08245420455932617,0.0005752515730996777,0.04095521477073305,-0.00025940337224383825,0.0,0.0
0.08434033393859863,0.000958752621832204,0.09063859006637642,-0.00025940337224383825,0.0,0.0
0.08636260032653809,0.0005752515730996777,-0.14972152285038476,-0.00025940337224383825,0.0,0.0
0.08833742141723633,0.0005752515730996777,-0.10406652933546923,-0.00025940337224383825,0.0,0.0
0.09048151969909668,0.0005752515730996777,-0.026184481574730967,-0.054215304798962194,0.0,0.0
0.09245085716247559,0.000958752621832204,0.1403219653620198,-0.16939040207522638,0.0,0.0
0.09450626373291016,0.000958752621832204,0.10406652933546923,-0.16316472114137426,0.0,0.0
0.09652447700500488,0.000958752621832204,-0.11078049897001563,-0.07548638132295693,0.0,0.0
0.0985865592956543,0.0005752515730996777,-0.059754329747462975,-0.00025940337224383825,0.0,0.0
0.10055947303771973,0.00019175052436715134,-0.15643549248493116,-0.00025940337224383825,0.0,0.0
0.10263776779174805,0.00019175052436715134,-0.054383154039825854,-0.00025940337224383825,0.0,0.0
0.1046905517578125,-0.0005752515730996777,-0.1886625467307539,-0.00025940337224383825,0.0,0.0
0.10676813125610352,-0.0005752515730996777,0.062439917601281536,-0.00025940337224383825,0.0,0.0
0.10891461372375488,-0.0005752515730996777,0.010070954451819603,-0.00025940337224383825,0.0,0.0
0.11101269721984863,-0.0005752515730996777,-0.07989623865110218,-0.00025940337224383825,0.0,0.0
0.11303043365478516,-0.0005752515730996777,0.03424124513618665,-0.00025940337224383825,0.0,0.0
0.11502981185913086,-0.0005752515730996777,0.07586785687037434,-0.00025940337224383825,0.0,0.0
0.11698770523071289,-0.0005752515730996777,0.018127718013275285,-0.00025940337224383825,0.0,0.0
0.1190185546875,-0.0005752515730996777,0.12823682001983627,-0.00025940337224383825,0.0,0.0
0.121002197265625,-0.0005752515730996777,-0.08392462043183002,-0.00025940337224383825,0.0,0.0
0.12311244010925293,-0.0005752515730996777,-0.09063859006637642,-0.00025940337224383825,0.0,0.0
0.12520408630371094,-0.0005752515730996777,-0.015442130159456724,-0.00025940337224383825,0.0,0.0
0.12736177444458008,-0.0005752515730996777,0.05035477225909801,0.059922178988326635,0.0,0.0
0.12944769859313965,-0.0005752515730996777,-0.027527275501640247,0.09571984435797631,0.0,0.0
0.13153576850891113,-0.000958752621832204,-0.08123903257801146,-0.00025940337224383825,0.0,0.0
0.1335604190826416,-0.0005752515730996777,-0.04498359655146089,-0.00025940337224383825,0.0,0.0
0.13569045066833496,-0.0005752515730996777,0.08258182650492074,-0.00025940337224383825,0.0,0.0
0.13774633407592773,-0.0005752515730996777,-0.08123903257801146,-0.00025940337224383825,0.0,0.0
0.1399211883544922,-0.0005752515730996777,0.08392462043183002,-0.00025940337224383825,0.0,0.0
0.1421060562133789,-0.0005752515730996777,0.004699778744182481,-0.00025940337224383825,0.0,0.0
0.1441974639892578,-0.0005752515730996777,0.0060425726710917615,-0.00025940337224383825,0.0,0.0
0.14625954627990723,-0.0005752515730996777,-0.04229800869764233,-0.00025940337224383825,0.0,0.0
0.1484241485595703,-0.0005752515730996777,0.15106431677729404,-0.00025940337224383825,0.0,0.0
0.15073299407958984,-0.0005752515730996777,-0.0020141908903639205,-0.00025940337224383825,0.0,0.0
0.15284228324890137,-0.00019175052436715134,0.058411535820553695,-0.009079118028534339,0.0,0.0
0.15493512153625488,0.00019175052436715134,0.194033722438391,-0.1818417639429306,0.0,0.0
0.15694570541381836,0.0005752515730996777,0.24505989166094366,-0.21245136186770353,0.0,0.0
0.15910124778747559,0.0005752515730996777,0.10138094148165067,-0.1403372243839165,0.0,0.0
0.16120290756225586,0.0005752515730996777,-0.030212863355458808,-0.04850843060959775,0.0,0.0
0.1633751392364502,0.0005752515730996777,0.04229800869764233,-0.00025940337224383825,0.0,0.0
0.1654500961303711,0.00019175052436715134,-0.09466697184710426,-0.029312581063553722,0.0,0.0
0.16750741004943848,0.00019175052436715134,0.018127718013275285,-0.00025940337224383825,0.0,0.0
0.16959285736083984,0.00019175052436715134,-0.010070954451819603,-0.00025940337224383825,0.0,0.0
0.1717073917388916,-0.00019175052436715134,-0.07049668116273722,-0.00025940337224383825,0.0,0.0
0.17379379272460938,-0.00019175052436715134,-0.054383154039825854,-0.00025940337224383825,0.0,0.0
0.1759204864501953,-0.00019175052436715134,0.023498893720912406,-0.00025940337224383825,0.0,0.0
0.17811799049377441,-0.00019175052436715134,0.11749446860456203,-0.00025940337224383825,0.0,0.0
0.1802043914794922,-0.00019175052436715134,-0.10943770504310635,-0.00025940337224383825,0.0,0.0
0.18212676048278809,-0.00019175052436715134,0.003356984817273201,-0.00025940337224383825,0.0,0.0
0.18433690071105957,-0.00019175052436715134,-0.012756542305638163,-0.00025940337224383825,0.0,0.0
0.18662381172180176,-0.00019175052436715134,0.10540932326237851,-0.00025940337224383825,0.0,0.0
0.18875503540039062,-0.00019175052436715134,-0.030212863355458808,-0.00025940337224383825,0.0,0.0
0.19106268882751465,-0.0005752515730996777,-0.04901197833218873,-0.00025940337224383825,0.0,0.0
0.19320440292358398,-0.00019175052436715134,0.05035477225909801,-0.018417639429312516,0.0,0.0
0.19541072845458984,-0.00019175052436715134,0.053040360112916574,-0.00025940337224383825,0.0,0.0
0.1975562572479248,-0.00019175052436715134,-0.11749446860456203,-0.00025940337224383825,0.0,0.0
0.1998898983001709,-0.00019175052436715134,0.08258182650492074,-0.040726329442282605,0.0,0.0
0.20204758644104004,-0.00019175052436715134,0.057068741893644415,-0.043839169909208664,0.0,0.0
0.20431065559387207,-0.00019175052436715134,0.03826962691691449,-0.00025940337224383825,0.0,0.0
0.20650172233581543,0.00019175052436715134,0.0020141908903639205,-0.12788586251621226,0.0,0.0
0.2087383270263672,0.00019175052436715134,-0.11749446860456203,-0.07911802853437067,0.0,0.0
0.2111375331878662,0.00019175052436715134,0.053040360112916574,-0.1268482490272369,0.0,0.0
0.2134227752685547,0.00019175052436715134,-0.10943770504310635,-0.0038910505836575737,0.0,0.0
0.21573400497436523,0.00019175052436715134,0.05169756618600729,-0.10661478599221752,0.0,0.0
0.2178511619567871,-0.00019175052436715134,-0.06646829938200938,-0.10298313878080378,0.0,0.0
0.22010374069213867,0.00019175052436715134,0.03289845120927737,-0.00025940337224383825,0.0,0.0
0.22231340408325195,0.00019175052436715134,0.0852674143587393,-0.08897535667963652,0.0,0.0
0.2246708869934082,0.00019175052436715134,0.14569314106965692,-0.14604409857328093,0.0,0.0
0.22696876525878906,0.00019175052436715134,0.15912108033874972,-0.19169909208819647,0.0,0.0
0.22918391227722168,0.00019175052436715134,-0.10809491111619707,-0.10661478599221752,0.0,0.0
0.23154878616333008,0.00019175052436715134,-0.11749446860456203,-0.15071335927367002,0.0,0.0
0.23363447189331055,0.00019175052436715134,-0.058411535820553695,-0.20155642023346232,0.0,0.0
0.2360072135925293,0.00019175052436715134,-0.059754329747462975,-0.008560311284046662,0.0,0.0
0.23831534385681152,0.00019175052436715134,-0.0006713969634546402,-0.16264591439688658,0.0,0.0
0.24053692817687988,0.00019175052436715134,0.06378271152819082,-0.07704280155641996,0.0,0.0
0.2426776885986328,0.00019175052436715134,-0.03692683299000521,-0.00025940337224383825,0.0,0.0
0.24503111839294434,0.00019175052436715134,0.012756542305638163,-0.1823605706874183,0.0,0.0
0.24727368354797363,0.00019175052436715134,0.194033722438391,-0.12840466926069993,0.0,0.0
0.24944567680358887,0.00019175052436715134,0.03558403906309593,-0.23891050583657503,0.0,0.0
0.2515096664428711,0.0005752515730996777,0.08795300221255786,-0.2217898832684817,0.0,0.0
0.2537119388580322,0.00019175052436715134,-0.08392462043183002,-0.1885862516212704,0.0,0.0
0.2559823989868164,0.0005752515730996777,-0.003356984817273201,-0.04280155642023331,0.0,0.0
0.25833797454833984,0.0005752515730996777,0.08392462043183002,-0.16264591439688658,0.0,0.0
0.2606043815612793,0.00019175052436715134,-0.09600976577401354,-0.22490272373540776,0.0,0.0
0.2629101276397705,0.0005752515730996777,0.059754329747462975,-0.15278858625162073,0.0,0.0
0.26517486572265625,0.0005752515730996777,0.020813305867093845,-0.18132295719844294,0.0,0.0
0.26745080947875977,0.0005752515730996777,-0.0006713969634546402,-0.24254215304798876,0.0,0.0
0.26958560943603516,0.0005752515730996777,-0.016784924086366004,-0.1356679636835274,0.0,0.0
0.27170896530151367,0.0005752515730996777,-0.012756542305638163,-0.2612191958495451,0.0,0.0
0.27375197410583496,0.00019175052436715134,0.015442130159456724,-0.1512321660181577,0.0,0.0
0.2759113311767578,0.00019175052436715134,-0.03155565728236809,-0.17613488975356617,0.0,0.0
0.2781977653503418,0.00019175052436715134,0.008728160524910322,-0.09883268482490237,0.0,0.0
0.2804853916168213,0.00019175052436715134,0.07452506294346506,-0.19273670557717182,0.0,0.0
0.2824738025665283,0.00019175052436715134,0.16583504997329612,-0.011154345006485045,0.0,0.0
0.28441810607910156,0.00019175052436715134,0.015442130159456724,-0.06926070038910481,0.0,0.0
0.2863912582397461,0.00019175052436715134,-0.15777828641184044,-0.036057068741893517,0.0,0.0
0.288463830947876,0.00019175052436715134,0.13629358358129195,-0.0028534370946822207,0.0,0.0
0.29061245918273926,-0.00019175052436715134,-0.11078049897001563,-0.0474708171206224,0.0,0.0
0.29274654388427734,-0.00019175052436715134,-0.027527275501640247,-0.10142671854734076,0.0,0.0
0.29491186141967773,0.00019175052436715134,-0.0060425726710917615,-0.08378728923475975,0.0,0.0
0.2970242500305176,0.00019175052436715134,0.03558403906309593,-0.00025940337224383825,0.0,0.0
0.29917287826538086,-0.00019175052436715134,-0.10003814755474139,-0.00025940337224383825,0.0,0.0
0.30126953125,-0.00019175052436715134,-0.010070954451819603,-0.12269779507133549,0.0,0.0
0.30341529846191406,-0.00019175052436715134,-0.012756542305638163,-0.00025940337224383825,0.0,0.0
0.3056313991546631,-0.00019175052436715134,-0.11480888075074347,-0.00025940337224383825,0.0,0.0
0.30779600143432617,-0.00019175052436715134,0.057068741893644415,-0.00025940337224383825,0.0,0.0
0.309985876083374,-0.00019175052436715134,-0.03961242084382377,-0.00025940337224383825,0.0,0.0
0.3121635913848877,-0.00019175052436715134,-0.054383154039825854,-0.042282749675745634,0.0,0.0
0.31449341773986816,-0.00019175052436715134,0.06915388723582794,-0.00025940337224383825,0.0,0.0
0.31667160987854004,-0.00019175052436715134,-0.010070954451819603,-0.00025940337224383825,0.0,0.0
0.31885433197021484,-0.00019175052436715134,0.14569314106965692,-0.00025940337224383825,0.0,0.0
0.3209669589996338,-0.00019175052436715134,-0.062439917601281536,-0.00025940337224383825,0.0,0.0
0.3230922222137451,-0.0005752515730996777,-0.061097123674372256,-0.00025940337224383825,0.0,0.0
0.32500720024108887,-0.0005752515730996777,0.028870069428549527,-0.00025940337224383825,0.0,0.0
0.32711148262023926,-0.0005752515730996777,-0.024841687647821686,-0.00025940337224383825,0.0,0.0
0.32914018630981445,-0.0005752515730996777,-0.11749446860456203,-0.00025940337224383825,0.0,0.0
0.33125996589660645,-0.0005752515730996777,0.026184481574730967,-0.00025940337224383825,0.0,0.0
0.3333430290222168,-0.00019175052436715134,0.15240711070420332,-0.00025940337224383825,0.0,0.0
0.3353133201599121,-0.0005752515730996777,0.0006713969634546402,-0.00025940337224383825,0.0,0.0
0.337421178817749,-0.0005752515730996777,-0.08392462043183002,-0.00025940337224383825,0.0,0.0
0.3395383358001709,-0.0005752515730996777,-0.2020904859998467,-0.00025940337224383825,0.0,0.0
0.34158992767333984,-0.0005752515730996777,-0.03558403906309593,-0.00025940337224383825,0.0,0.0
0.3436768054962158,-0.0005752515730996777,-0.061097123674372256,-0.00025940337224383825,0.0,0.0
0.34562182426452637,-0.0005752515730996777,-0.04901197833218873,-0.00025940337224383825,0.0,0.0
0.3476908206939697,-0.00019175052436715134,0.07989623865110218,-0.00025940337224383825,0.0,0.0
0.3498404026031494,-0.0005752515730996777,-0.03961242084382377,-0.00025940337224383825,0.0,0.0
0.3518552780151367,-0.0005752515730996777,-0.018127718013275285,-0.00025940337224383825,0.0,0.0
0.3538525104522705,-0.0005752515730996777,-0.004699778744182481,-0.00025940337224383825,0.0,0.0
0.3559753894805908,-0.0005752515730996777,0.06646829938200938,-0.00025940337224383825,0.0,0.0
0.3580508232116699,-0.0005752515730996777,0.020813305867093845,-0.00025940337224383825,0.0,0.0
0.3602724075317383,-0.0005752515730996777,0.003356984817273201,-0.00025940337224383825,0.0,0.0
0.3624253273010254,-0.0005752515730996777,0.10675211718928779,-0.00025940337224383825,0.0,0.0
0.3645174503326416,-0.0005752515730996777,0.0006713969634546402,-0.00025940337224383825,0.0,0.0
0.36663198471069336,-0.0005752515730996777,0.12018005645838059,-0.00025940337224383825,0.0,0.0
0.36867737770080566,-0.0005752515730996777,-0.10272373540855995,-0.00025940337224383825,0.0,0.0
0.37064051628112793,-0.0005752515730996777,0.10406652933546923,-0.00025940337224383825,0.0,0.0
0.3726489543914795,-0.0005752515730996777,-0.1403219653620198,-0.00025940337224383825,0.0,0.0
0.3746051788330078,-0.0005752515730996777,0.018127718013275285,-0.00025940337224383825,0.0,0.0
0.3767740726470947,-0.0005752515730996777,0.07049668116273722,-0.00025940337224383825,0.0,0.0
0.37894225120544434,-0.0005752515730996777,0.028870069428549527,-0.00025940337224383825,0.0,0.0
0.3809778690338135,-0.0005752515730996777,-0.0986953536278321,-0.00025940337224383825,0.0,0.0
0.38304567337036133,-0.0005752515730996777,0.007385366598001042,-0.00025940337224383825,0.0,0.0
0.3849668502807617,-0.0005752515730996777,0.0919813839932857,-0.00025940337224383825,0.0,0.0
0.3868904113769531,-0.000958752621832204,-0.2840009155413128,-0.00025940337224383825,0.0,0.0
0.3889291286468506,-0.000958752621832204,-0.16314946211947756,0.08534370946822278,0.0,0.0
0.3910524845123291,-0.000958752621832204,-0.059754329747462975,0.14396887159533023,0.0,0.0
0.39313316345214844,-0.000958752621832204,-0.022156099794003126,0.16783398184176335,0.0,0.0
0.39511871337890625,-0.000958752621832204,0.020813305867093845,0.19688715953307323,0.0,0.0
0.3971378803253174,-0.0013422536705647303,0.11749446860456203,0.1797665369649799,0.0,0.0
0.3992021083831787,-0.000958752621832204,-0.07586785687037434,0.1553826199740591,0.0,0.0
0.40128469467163086,-0.000958752621832204,-0.03155565728236809,0.04850843060959775,0.0,0.0
0.4035964012145996,-0.000958752621832204,-0.030212863355458808,0.14396887159533023,0.0,0.0
0.4059882164001465,-0.0013422536705647303,0.13092240787365483,0.1465629053177686,0.0,0.0
0.40813541412353516,-0.000958752621832204,0.0718394750896465,-0.00025940337224383825,0.0,0.0
0.4104180335998535,-0.000958752621832204,0.16986343175402396,0.11232166018158196,0.0,0.0
0.4127211570739746,-0.000958752621832204,-0.03289845120927737,0.04280155642023331,0.0,0.0
0.41498827934265137,-0.000958752621832204,-0.04632639047837017,0.037613488975356546,0.0,0.0
0.4172208309173584,-0.0005752515730996777,0.07318226901655578,-0.00025940337224383825,0.0,0.0
0.41913318634033203,-0.0005752515730996777,0.08795300221255786,-0.00025940337224383825,0.0,0.0
0.4212021827697754,-0.0005752515730996777,0.04766918440527945,-0.00025940337224383825,0.0,0.0
0.4233403205871582,-0.000958752621832204,-0.13629358358129195,-0.00025940337224383825,0.0,0.0
0.4253499507904053,-0.0005752515730996777,0.016784924086366004,-0.00025940337224383825,0.0,0.0
0.427426815032959,-0.0005752515730996777,-0.03424124513618665,-0.00025940337224383825,0.0,0.0
0.4294595718383789,-0.0005752515730996777,0.1336079957274734,-0.00025940337224383825,0.0,0.0
0.43163537979125977,-0.0005752515730996777,-0.010070954451819603,0.061478599221789665,0.0,0.0
0.43367791175842285,-0.000958752621832204,-0.08123903257801146,-0.00025940337224383825,0.0,0.0
0.43577075004577637,-0.0005752515730996777,0.07049668116273722,0.15278858625162073,0.0,0.0
0.43792247772216797,-0.0005752515730996777,0.055725947966735134,0.07081712062256784,0.0,0.0
0.4400017261505127,-0.000958752621832204,-0.09332417792019498,0.07756160830090764,0.0,0.0
0.44204044342041016,-0.0005752515730996777,0.17926298924238893,0.10817120622568055,0.0,0.0
0.4440891742706299,-0.000958752621832204,-0.03692683299000521,0.1709468223086894,0.0,0.0
0.4460029602050781,-0.000958752621832204,-0.08929579613946714,0.05577172503242522,0.0,0.0
0.4480295181274414,-0.000958752621832204,-0.03558403906309593,0.029312581063553722,0.0,0.0
0.4500405788421631,-0.000958752621832204,0.04632639047837017,0.1289234760051876,0.0,0.0
0.45192790031433105,-0.000958752621832204,-0.09735255970092282,0.12736705577172458,0.0,0.0
