time,position,velocity,torque,position_ref,velocity_ref
2.384185791015625e-07,-0.05388189734698834,-0.10540932326237851,-0.00025940337224383825,-0.0,-0.0
0.0023047924041748047,-0.05349839629825581,0.3242847333485912,0.932555123216602,-0.0,-0.0
0.0045969486236572266,-0.05196439210332393,0.6720683604180948,0.822049286640727,-0.0,-0.0
0.007069110870361328,-0.05004688685965952,0.8855725947966704,0.8863813229571988,-0.0,-0.0
0.009490013122558594,-0.04774588056726081,1.0117952239261427,0.9699092088197148,-0.0,-0.0
0.011773824691772461,-0.04467787217739705,1.276325627527271,0.8853437094682235,-0.0,-0.0
0.013944149017333984,-0.04122636273879898,1.5650263218127733,0.8495460440985738,-0.0,-0.0
0.016196250915527344,-0.03739135225146839,1.7181048294804313,0.9408560311284049,-0.0,-0.0
0.01842021942138672,-0.0339398428128721,1.6617074845502415,1.1115434500648504,-0.0,-0.0
0.020658016204833984,-0.029721331276808982,1.7677882047760747,0.9232166018158239,-0.0,-0.0
0.022860288619995117,-0.025502819740745863,1.8094148165102624,0.8557717250324259,-0.0,-0.0
0.025120019912719727,-0.02166780925341527,1.759731441214619,0.8718547341115439,-0.0,-0.0
0.02733612060546875,-0.01783279876608468,1.7557030594338912,0.6949416342412462,-0.0,-0.0
0.029553890228271484,-0.01361428723002156,1.8000152590218974,0.49416342412451186,-0.0,-0.0
0.03175830841064453,-0.009779276742692744,1.7127336537727942,0.3411154345006473,-0.0,-0.0
0.03400397300720215,-0.006327767304094678,1.3944914930952947,0.3494163424124501,-0.0,-0.0
0.036191701889038086,-0.0028762578654983884,1.3985198748760226,0.34007782101167194,-0.0,-0.0
0.03841757774353027,-0.0005752515730996777,1.1219043259327037,0.47652399481193086,-0.0,-0.0
0.04070687294006348,0.001725754719299033,0.8802014190890333,0.5616083009079134,-0.0,-0.0
0.0428309440612793,0.0032597589142309147,0.7177233539330103,0.6057068741893659,-0.0,-0.0
0.04484748840332031,0.00441026206043027,0.43573662928206147,0.4775616083009062,-0.0,-0.0
0.047106027603149414,0.005177264157895323,0.18597695887693533,0.35771725032425294,-0.0,-0.0
0.04926729202270508,0.004793763109162796,-0.17523460746166108,0.2897535667963673,-0.0,-0.0
0.0514225959777832,0.00441026206043027,-0.29474326695658704,0.2503242542153039,-0.0,-0.0
0.05353188514709473,0.003643259962963441,-0.4196231021591501,0.11699092088197105,-0.0,-0.0
0.05556654930114746,0.0024927568167640857,-0.668039978637367,0.17613488975356617,-0.0,-0.0
0.057588815689086914,0.0013422536705647303,-0.45050736247806356,0.3032425421530469,-0.0,-0.0
0.059763431549072266,0.0005752515730996777,-0.39545281147478306,0.24461738002593947,-0.0,-0.0
0.061920166015625,-0.00019175052436715134,-0.49079118028534197,0.21400778210116655,-0.0,-0.0
0.06401228904724121,-0.0005752515730996777,-0.3162279697871355,0.1642023346303496,-0.0,-0.0
0.0660855770111084,-0.000958752621832204,-0.14837872892347548,0.17509727626459082,-0.0,-0.0
0.06811213493347168,-0.001725754719299033,-0.27460135805294783,0.14500648508430558,-0.0,-0.0
0.07019543647766113,-0.001725754719299033,-0.03424124513618665,0.17613488975356617,-0.0,-0.0
0.07234692573547363,-0.001725754719299033,-0.08392462043183002,0.1382619974059658,-0.0,-0.0
0.07444977760314941,-0.001725754719299033,-0.03155565728236809,0.2108949416342405,-0.0,-0.0
0.07653474807739258,-0.001725754719299033,-0.061097123674372256,0.09571984435797631,-0.0,-0.0
0.07848119735717773,-0.001725754719299033,0.03424124513618665,0.22438391699092008,-0.0,-0.0
0.0805368423461914,-0.001725754719299033,0.0020141908903639205,0.23631647211413664,-0.0,-0.0
0.08245420455932617,-0.001725754719299033,-0.007385366598001042,0.2814526588845645,-0.0,-0.0
0.08434033393859863,-0.001725754719299033,-0.1671778439002054,0.17405966277561546,-0.0,-0.0
0.08636260032653809,-0.001725754719299033,-0.016784924086366004,0.3037613488975346,-0.0,-0.0
0.08833742141723633,-0.001725754719299033,-0.09063859006637642,0.3188067444876772,-0.0,-0.0
0.09048151969909668,-0.001725754719299033,0.13092240787365483,0.2415045395590134,-0.0,-0.0
0.09245085716247559,-0.0013422536705647303,0.12823682001983627,0.19377431906614717,-0.0,-0.0
0.09450626373291016,-0.000958752621832204,0.15106431677729404,0.11128404669260661,-0.0,-0.0
0.09652447700500488,-0.000958752621832204,0.17254901960784252,0.04850843060959775,-0.0,-0.0
0.0985865592956543,-0.000958752621832204,-0.03155565728236809,-0.00025940337224383825,-0.0,-0.0
0.10055947303771973,-0.0005752515730996777,0.030212863355458808,0.0028534370946822207,-0.0,-0.0
0.10263776779174805,-0.0005752515730996777,0.023498893720912406,-0.00025940337224383825,-0.0,-0.0
0.1046905517578125,-0.0005752515730996777,0.21283283741512093,-0.00025940337224383825,-0.0,-0.0
0.10676813125610352,-0.0005752515730996777,-0.04498359655146089,0.015304798962386457,-0.0,-0.0
0.10891461372375488,-0.0005752515730996777,0.03289845120927737,-0.00025940337224383825,-0.0,-0.0
0.11101269721984863,-0.0005752515730996777,0.07318226901655578,-0.00025940337224383825,-0.0,-0.0
0.11303043365478516,-0.0005752515730996777,0.018127718013275285,0.007003891050583633,-0.0,-0.0
0.11502981185913086,-0.0005752515730996777,0.03289845120927737,-0.00025940337224383825,-0.0,-0.0
0.11698770523071289,-0.00019175052436715134,0.07452506294346506,-0.00025940337224383825,-0.0,-0.0
0.1190185546875,-0.00019175052436715134,0.061097123674372256,-0.00025940337224383825,-0.0,-0.0
0.121002197265625,-0.00019175052436715134,-0.011413748378728883,-0.00025940337224383825,-0.0,-0.0
0.12311244010925293,-0.0005752515730996777,-0.16314946211947756,-0.00025940337224383825,-0.0,-0.0
0.12520408630371094,-0.00019175052436715134,-0.004699778744182481,-0.00025940337224383825,-0.0,-0.0
0.12736177444458008,-0.00019175052436715134,0.055725947966735134,-0.00025940337224383825,-0.0,-0.0
0.12944769859313965,-0.00019175052436715134,0.12018005645838059,-0.00025940337224383825,-0.0,-0.0
0.13153576850891113,-0.00019175052436715134,0.010070954451819603,-0.004928664072632927,-0.0,-0.0
0.1335604190826416,-0.00019175052436715134,0.012756542305638163,-0.00025940337224383825,-0.0,-0.0
0.13569045066833496,-0.00019175052436715134,-0.030212863355458808,-0.00025940337224383825,-0.0,-0.0
0.13774633407592773,-0.00019175052436715134,-0.09063859006637642,-0.00025940337224383825,-0.0,-0.0
0.1399211883544922,-0.00019175052436715134,0.03289845120927737,-0.00025940337224383825,-0.0,-0.0
0.1421060562133789,-0.00019175052436715134,0.014099336232547444,-0.00025940337224383825,-0.0,-0.0
0.1441974639892578,-0.00019175052436715134,-0.07049668116273722,-0.00025940337224383825,-0.0,-0.0
0.14625954627990723,-0.0005752515730996777,-0.2020904859998467,-0.00025940337224383825,-0.0,-0.0
0.1484241485595703,-0.0005752515730996777,0.19269092851148173,-0.00025940337224383825,-0.0,-0.0
0.15073299407958984,-0.0005752515730996777,0.07318226901655578,-0.00025940337224383825,-0.0,-0.0
0.15284228324890137,-0.0005752515730996777,0.04229800869764233,-0.00025940337224383825,-0.0,-0.0
0.15493512153625488,-0.0005752515730996777,0.07989623865110218,-0.00025940337224383825,-0.0,-0.0
0.15694570541381836,-0.0005752515730996777,0.0020141908903639205,-0.00025940337224383825,-0.0,-0.0
0.15910124778747559,-0.0005752515730996777,-0.08392462043183002,-0.00025940337224383825,-0.0,-0.0
0.16120290756225586,-0.0005752515730996777,0.17254901960784252,-0.00025940337224383825,-0.0,-0.0
0.1633751392364502,-0.0005752515730996777,-0.058411535820553695,-0.00025940337224383825,-0.0,-0.0
0.1654500961303711,-0.0005752515730996777,0.030212863355458808,-0.00025940337224383825,-0.0,-0.0
0.16750741004943848,-0.00019175052436715134,-0.022156099794003126,-0.00025940337224383825,-0.0,-0.0
0.16959285736083984,-0.00019175052436715134,0.10272373540855995,-0.00025940337224383825,-0.0,-0.0
0.1717073917388916,-0.00019175052436715134,0.022156099794003126,-0.00025940337224383825,-0.0,-0.0
0.17379379272460938,-0.00019175052436715134,0.09735255970092282,-0.00025940337224383825,-0.0,-0.0
0.1759204864501953,-0.00019175052436715134,-0.0060425726710917615,-0.00025940337224383825,-0.0,-0.0
0.17811799049377441,-0.0005752515730996777,-0.03155565728236809,-0.00025940337224383825,-0.0,-0.0
0.1802043914794922,-0.00019175052436715134,0.04229800869764233,-0.00025940337224383825,-0.0,-0.0
0.18212676048278809,-0.00019175052436715134,-0.026184481574730967,-0.00025940337224383825,-0.0,-0.0
0.18433690071105957,-0.00019175052436715134,-0.13763637750820124,-0.00025940337224383825,-0.0,-0.0
0.18662381172180176,-0.00019175052436715134,0.03961242084382377,-0.00025940337224383825,-0.0,-0.0
0.18875503540039062,-0.00019175052436715134,0.06646829938200938,-0.00025940337224383825,-0.0,-0.0
0.19106268882751465,-0.00019175052436715134,0.10406652933546923,-0.00025940337224383825,-0.0,-0.0
0.19320440292358398,-0.00019175052436715134,-0.010070954451819603,-0.00025940337224383825,-0.0,-0.0
0.19541072845458984,-0.00019175052436715134,0.03289845120927737,-0.00025940337224383825,-0.0,-0.0
0.1975562572479248,-0.00019175052436715134,-0.014099336232547444,-0.00025940337224383825,-0.0,-0.0
0.1998898983001709,-0.00019175052436715134,-0.0718394750896465,-0.00025940337224383825,-0.0,-0.0
0.20204758644104004,-0.00019175052436715134,0.010070954451819603,-0.00025940337224383825,-0.0,-0.0
0.20431065559387207,-0.00019175052436715134,-0.059754329747462975,-0.0018158236057068677,-0.0,-0.0
0.20650172233581543,-0.00019175052436715134,-0.1336079957274734,-0.00025940337224383825,-0.0,-0.0
0.2087383270263672,-0.00019175052436715134,0.08392462043183002,-0.00025940337224383825,-0.0,-0.0
0.2111375331878662,-0.00019175052436715134,-0.014099336232547444,-0.00025940337224383825,-0.0,-0.0
0.2134227752685547,-0.00019175052436715134,0.027527275501640247,-0.033463035019455134,-0.0,-0.0
0.21573400497436523,-0.00019175052436715134,-0.08661020828564858,-0.07548638132295693,-0.0,-0.0
0.2178511619567871,-0.00019175052436715134,-0.04364080262455161,-0.00025940337224383825,-0.0,-0.0
0.22010374069213867,-0.00019175052436715134,0.03155565728236809,-0.00025940337224383825,-0.0,-0.0
0.22231340408325195,0.00019175052436715134,-0.028870069428549527,-0.00025940337224383825,-0.0,-0.0
0.2246708869934082,0.00019175052436715134,-0.014099336232547444,-0.024124513618676957,-0.0,-0.0
0.22696876525878906,0.00019175052436715134,0.17254901960784252,-0.00025940337224383825,-0.0,-0.0
0.22918391227722168,0.00019175052436715134,0.03826962691691449,-0.00025940337224383825,-0.0,-0.0
0.23154878616333008,0.00019175052436715134,0.07318226901655578,-0.1003891050583654,-0.0,-0.0
0.23363447189331055,0.00019175052436715134,0.09600976577401354,-0.03242542153047978,-0.0,-0.0
0.2360072135925293,0.00019175052436715134,-0.003356984817273201,-0.14293125810635487,-0.0,-0.0
0.23831534385681152,0.00019175052436715134,-0.024841687647821686,-0.1403372243839165,-0.0,-0.0
0.24053692817687988,0.00019175052436715134,-0.04229800869764233,-0.10142671854734076,-0.0,-0.0
0.2426776885986328,0.00019175052436715134,0.010070954451819603,-0.15901426718547285,-0.0,-0.0
0.24503111839294434,0.00019175052436715134,0.030212863355458808,-0.14552529182879326,-0.0,-0.0
0.24727368354797363,0.00019175052436715134,0.016784924086366004,-0.10453955901426681,-0.0,-0.0
0.24944567680358887,0.00019175052436715134,-0.0020141908903639205,-0.04020752269779493,-0.0,-0.0
0.2515096664428711,0.00019175052436715134,0.028870069428549527,-0.17198443579766476,-0.0,-0.0
0.2537119388580322,0.00019175052436715134,0.0651255054551001,-0.029312581063553722,-0.0,-0.0
0.2559823989868164,0.00019175052436715134,-0.022156099794003126,-0.1247730220492862,-0.0,-0.0
0.25833797454833984,0.00019175052436715134,-0.015442130159456724,-0.1818417639429306,-0.0,-0.0
0.2606043815612793,0.00019175052436715134,-0.027527275501640247,-0.06666666666666643,-0.0,-0.0
0.2629101276397705,0.00019175052436715134,0.053040360112916574,-0.1512321660181577,-0.0,-0.0
0.26517486572265625,0.00019175052436715134,0.16180666819256828,-0.07548638132295693,-0.0,-0.0
0.26745080947875977,0.00019175052436715134,0.054383154039825854,-0.11335927367055731,-0.0,-0.0
0.26958560943603516,0.00019175052436715134,0.003356984817273201,-0.03086900129701675,-0.0,-0.0
0.27170896530151367,0.00019175052436715134,0.06781109330891866,-0.13463035019455205,-0.0,-0.0
0.27375197410583496,0.00019175052436715134,-0.059754329747462975,-0.10298313878080378,-0.0,-0.0
0.2759113311767578,0.00019175052436715134,0.015442130159456724,-0.09520103761348864,-0.0,-0.0
0.2781977653503418,0.00019175052436715134,-0.015442130159456724,-0.08482490272373511,-0.0,-0.0
0.2804853916168213,0.00019175052436715134,-0.03826962691691449,-0.03813229571984422,-0.0,-0.0
0.2824738025665283,0.00019175052436715134,-0.026184481574730967,-0.17250324254215244,-0.0,-0.0
0.28441810607910156,0.00019175052436715134,0.05169756618600729,-0.06874189364461714,-0.0,-0.0
0.2863912582397461,0.00019175052436715134,0.014099336232547444,-0.09571984435797631,-0.0,-0.0
0.288463830947876,0.00019175052436715134,0.03424124513618665,-0.10350194552529146,-0.0,-0.0
0.29061245918273926,-0.00019175052436715134,0.010070954451819603,-0.09987029831387773,-0.0,-0.0
0.29274654388427734,-0.00019175052436715134,-0.03961242084382377,-0.00025940337224383825,-0.0,-0.0
0.29491186141967773,0.00019175052436715134,0.03289845120927737,-0.00025940337224383825,-0.0,-0.0
0.2970242500305176,-0.00019175052436715134,-0.055725947966735134,-0.013748378728923427,-0.0,-0.0
0.29917287826538086,-0.00019175052436715134,-0.23028915846494158,-0.00025940337224383825,-0.0,-0.0
0.30126953125,-0.00019175052436715134,-0.05035477225909801,-0.00025940337224383825,-0.0,-0.0
0.30341529846191406,-0.00019175052436715134,-0.12152285038528987,-0.00025940337224383825,-0.0,-0.0
0.3056313991546631,-0.00019175052436715134,-0.011413748378728883,-0.00025940337224383825,-0.0,-0.0
0.30779600143432617,-0.00019175052436715134,-0.026184481574730967,-0.00025940337224383825,-0.0,-0.0
0.309985876083374,-0.00019175052436715134,0.014099336232547444,-0.00025940337224383825,-0.0,-0.0
0.3121635913848877,-0.0005752515730996777,-0.04364080262455161,-0.00025940337224383825,-0.0,-0.0
0.31449341773986816,-0.0005752515730996777,-0.10675211718928779,-0.00025940337224383825,-0.0,-0.0
0.31667160987854004,-0.0005752515730996777,0.13092240787365483,-0.00025940337224383825,-0.0,-0.0
0.31885433197021484,-0.0005752515730996777,-0.014099336232547444,-0.00025940337224383825,-0.0,-0.0
0.3209669589996338,-0.0005752515730996777,0.14569314106965692,-0.00025940337224383825,-0.0,-0.0
0.3230922222137451,-0.0005752515730996777,-0.022156099794003126,-0.00025940337224383825,-0.0,-0.0
0.32500720024108887,-0.0005752515730996777,0.019470511940184565,-0.00025940337224383825,-0.0,-0.0
0.32711148262023926,-0.0005752515730996777,-0.062439917601281536,-0.00025940337224383825,-0.0,-0.0
0.32914018630981445,-0.0005752515730996777,-0.07586785687037434,-0.00025940337224383825,-0.0,-0.0
0.33125996589660645,-0.0005752515730996777,0.057068741893644415,-0.00025940337224383825,-0.0,-0.0
0.3333430290222168,-0.0005752515730996777,0.061097123674372256,-0.00025940337224383825,-0.0,-0.0
0.3353133201599121,-0.0005752515730996777,-0.14300755321583836,-0.00025940337224383825,-0.0,-0.0
0.337421178817749,-0.0005752515730996777,-0.16180666819256828,-0.00025940337224383825,-0.0,-0.0
0.3395383358001709,-0.0005752515730996777,0.04364080262455161,-0.00025940337224383825,-0.0,-0.0
0.34158992767333984,-0.0005752515730996777,-0.003356984817273201,-0.00025940337224383825,-0.0,-0.0
0.3436768054962158,-0.0005752515730996777,-0.10540932326237851,-0.00025940337224383825,-0.0,-0.0
0.34562182426452637,-0.0005752515730996777,0.13629358358129195,-0.00025940337224383825,-0.0,-0.0
0.3476908206939697,-0.0005752515730996777,0.062439917601281536,-0.00025940337224383825,-0.0,-0.0
0.3498404026031494,-0.0005752515730996777,-0.16449225604638684,-0.00025940337224383825,-0.0,-0.0
0.3518552780151367,-0.0005752515730996777,0.06378271152819082,-0.00025940337224383825,-0.0,-0.0
0.3538525104522705,-0.0005752515730996777,0.09466697184710426,-0.00025940337224383825,-0.0,-0.0
0.3559753894805908,-0.0005752515730996777,0.04229800869764233,0.027756160830090693,-0.0,-0.0
0.3580508232116699,-0.0005752515730996777,-0.022156099794003126,0.013748378728923427,-0.0,-0.0
0.3602724075317383,-0.0005752515730996777,0.07721065079728362,-0.00025940337224383825,-0.0,-0.0
0.3624253273010254,-0.000958752621832204,-0.08123903257801146,-0.00025940337224383825,-0.0,-0.0
0.3645174503326416,-0.0005752515730996777,-0.027527275501640247,0.06095979247730199,-0.0,-0.0
0.36663198471069336,-0.0005752515730996777,0.018127718013275285,0.08223086900129672,-0.0,-0.0
0.36867737770080566,-0.000958752621832204,0.03961242084382377,0.042282749675745634,-0.0,-0.0
0.37064051628112793,-0.0005752515730996777,-0.026184481574730967,-0.00025940337224383825,-0.0,-0.0
0.3726489543914795,-0.000958752621832204,0.0006713969634546402,0.0630350194552527,-0.0,-0.0
0.3746051788330078,-0.0005752515730996777,0.11212329289692491,-0.00025940337224383825,-0.0,-0.0
0.3767740726470947,-0.0005752515730996777,-0.020813305867093845,0.10453955901426681,-0.0,-0.0
0.37894225120544434,-0.0005752515730996777,0.030212863355458808,-0.00025940337224383825,-0.0,-0.0
0.3809778690338135,-0.0005752515730996777,0.030212863355458808,0.09416342412451328,-0.0,-0.0
0.38304567337036133,-0.0005752515730996777,0.061097123674372256,-0.00025940337224383825,-0.0,-0.0
0.3849668502807617,-0.0005752515730996777,-0.11883726253147131,-0.00025940337224383825,-0.0,-0.0
0.3868904113769531,-0.0005752515730996777,0.003356984817273201,-0.00025940337224383825,-0.0,-0.0
0.3889291286468506,-0.0005752515730996777,0.014099336232547444,0.0630350194552527,-0.0,-0.0
0.3910524845123291,-0.0005752515730996777,0.08795300221255786,-0.00025940337224383825,-0.0,-0.0
0.39313316345214844,-0.000958752621832204,-0.0785534447241929,0.0033722438391698972,-0.0,-0.0
0.39511871337890625,-0.0005752515730996777,-0.061097123674372256,0.07808041504539531,-0.0,-0.0
0.3971378803253174,-0.0005752515730996777,-0.03961242084382377,-0.00025940337224383825,-0.0,-0.0
0.3992021083831787,-0.000958752621832204,-0.09466697184710426,0.06459143968871572,-0.0,-0.0
0.40128469467163086,-0.0005752515730996777,-0.057068741893644415,0.0760051880674446,-0.0,-0.0
0.4035964012145996,-0.000958752621832204,-0.058411535820553695,0.00596627756160828,-0.0,-0.0
0.4059882164001465,-0.0005752515730996777,0.023498893720912406,0.07289234760051855,-0.0,-0.0
0.40813541412353516,-0.0005752515730996777,0.062439917601281536,0.04020752269779493,-0.0,-0.0
0.4104180335998535,-0.0005752515730996777,-0.014099336232547444,0.10661478599221752,-0.0,-0.0
0.4127211570739746,-0.000958752621832204,-0.027527275501640247,0.02360570687418928,-0.0,-0.0
0.41498827934265137,-0.000958752621832204,-0.11212329289692491,0.022568093385213928,-0.0,-0.0
0.4172208309173584,-0.0005752515730996777,-0.11615167467765275,-0.00025940337224383825,-0.0,-0.0
0.41913318634033203,-0.000958752621832204,-0.05035477225909801,-0.00025940337224383825,-0.0,-0.0
0.4212021827697754,-0.000958752621832204,-0.06915388723582794,0.08690012970168581,-0.0,-0.0
0.4233403205871582,-0.0005752515730996777,0.0060425726710917615,0.010635538261997368,-0.0,-0.0
0.4253499507904053,-0.000958752621832204,-0.019470511940184565,0.06822308690012946,-0.0,-0.0
0.427426815032959,-0.0005752515730996777,0.011413748378728883,0.042282749675745634,-0.0,-0.0
0.4294595718383789,-0.000958752621832204,-0.03961242084382377,-0.00025940337224383825,-0.0,-0.0
0.43163537979125977,-0.0005752515730996777,0.04498359655146089,0.025680933852139987,-0.0,-0.0
0.43367791175842285,-0.0005752515730996777,0.024841687647821686,0.025680933852139987,-0.0,-0.0
0.43577075004577637,-0.0005752515730996777,0.0919813839932857,0.004928664072632927,-0.0,-0.0
0.43792247772216797,-0.0005752515730996777,-0.0020141908903639205,0.03553826199740584,-0.0,-0.0
0.4400017261505127,-0.0005752515730996777,0.09332417792019498,0.08430609597924743,-0.0,-0.0
0.44204044342041016,-0.0005752515730996777,-0.03558403906309593,0.03657587548638119,-0.0,-0.0
0.4440891742706299,-0.0005752515730996777,-0.057068741893644415,-0.00025940337224383825,-0.0,-0.0
