time,position,velocity,torque,position_ref,velocity_ref
7.152557373046875e-07,-0.05043038790839205,-0.057068741893644415,-0.06977950713359249,-0.0,-0.0
0.0024738311767578125,-0.05004688685965952,0.3296559090562283,1.3242542153047978,-0.0,-0.0
0.004710674285888672,-0.04774588056726081,0.9016861219195818,0.5024643320363147,-0.0,-0.0
0.006995439529418945,-0.0454448742748621,0.9473411154344973,0.06355382619974037,-0.0,-0.0
0.009259939193725586,-0.04314386798246517,0.9057145037003096,0.1999999999999993,-0.0,-0.0
0.011510610580444336,-0.040842861690066457,0.9715114061188643,0.1424124513618672,-0.0,-0.0
0.013648033142089844,-0.03892535644640205,1.0346227206836005,-0.00025940337224383825,-0.0,-0.0
0.015688180923461914,-0.037007851202735864,1.0171663996337799,-0.00025940337224383825,-0.0,-0.0
0.017676830291748047,-0.03470684491033715,1.0265659571221448,-0.00025940337224383825,-0.0,-0.0
0.01964092254638672,-0.03240583861794022,1.0695353627832418,-0.00025940337224383825,-0.0,-0.0
0.021636247634887695,-0.030488333374274035,1.022537575341417,-0.00025940337224383825,-0.0,-0.0
0.023613691329956055,-0.0281873270818771,1.031937132829782,-0.00025940337224383825,-0.0,-0.0
0.025645017623901367,-0.026269821838210916,0.9433127336537694,0.007522697795071309,-0.0,-0.0
0.027763843536376953,-0.024352316594546508,0.9728542000457736,-0.00025940337224383825,-0.0,-0.0
0.02967548370361328,-0.0224348113508821,0.9809109636072293,-0.00025940337224383825,-0.0,-0.0
0.031768083572387695,-0.020517306107215916,0.8949721522850353,-0.00025940337224383825,-0.0,-0.0
0.033850908279418945,-0.018599800863551508,0.8869153887235797,-0.00025940337224383825,-0.0,-0.0
0.03588151931762695,-0.017065796668619626,0.8224612802319342,0.01634241245136181,-0.0,-0.0
0.0378718376159668,-0.015531792473687744,0.878858625162124,-0.0038910505836575737,-0.0,-0.0
0.03987598419189453,-0.013997788278755863,0.826489662012662,-0.00025940337224383825,-0.0,-0.0
0.042015790939331055,-0.012080283035089678,0.7741206988632001,-0.00025940337224383825,-0.0,-0.0
0.04397439956665039,-0.010546278840157797,0.658640421149002,-0.00025940337224383825,-0.0,-0.0
0.046103477478027344,-0.009395775693958441,0.6277561608300886,-0.00025940337224383825,-0.0,-0.0
0.0480499267578125,-0.008628773596493389,0.5498741130693503,0.023086900129701604,-0.0,-0.0
0.0501399040222168,-0.007478270450294033,0.5807583733882637,-0.00025940337224383825,-0.0,-0.0
0.05219125747680664,-0.006327767304094678,0.4961623559929791,0.012710765239948074,-0.0,-0.0
0.05439114570617676,-0.005177264157895323,0.47736324101624916,-0.00025940337224383825,-0.0,-0.0
0.05644726753234863,-0.00441026206043027,0.4008239871824202,-0.00025940337224383825,-0.0,-0.0
0.058553218841552734,-0.003643259962963441,0.43573662928206147,-0.00025940337224383825,-0.0,-0.0
0.06069231033325195,-0.0028762578654983884,0.3054856183718613,-0.00025940337224383825,-0.0,-0.0
0.0628211498260498,-0.0021092557680315593,0.30817120622567984,-0.00025940337224383825,-0.0,-0.0
0.06488299369812012,-0.001725754719299033,0.2987716487373149,-0.00025940337224383825,-0.0,-0.0
0.06702256202697754,-0.000958752621832204,0.2423743038071251,-0.00025940337224383825,-0.0,-0.0
0.06909775733947754,-0.0005752515730996777,0.21417563134203021,-0.00025940337224383825,-0.0,-0.0
0.07111883163452148,-0.00019175052436715134,0.20611886778057453,-0.00025940337224383825,-0.0,-0.0
0.07321524620056152,0.00019175052436715134,0.2007476920729374,-0.00025940337224383825,-0.0,-0.0
0.07544422149658203,0.0005752515730996777,0.059754329747462975,0.10765239948119287,-0.0,-0.0
0.07753443717956543,0.0005752515730996777,0.054383154039825854,0.06977950713359249,-0.0,-0.0
0.07955574989318848,0.000958752621832204,0.10003814755474139,-0.00025940337224383825,-0.0,-0.0
0.08146905899047852,0.000958752621832204,0.055725947966735134,-0.00025940337224383825,-0.0,-0.0
0.08378767967224121,0.0013422536705647303,0.0718394750896465,-0.00025940337224383825,-0.0,-0.0
0.08622908592224121,0.0013422536705647303,0.10406652933546923,-0.00025940337224383825,-0.0,-0.0
0.08836770057678223,0.001725754719299033,0.10138094148165067,-0.00025940337224383825,-0.0,-0.0
0.09051752090454102,0.001725754719299033,0.12018005645838059,-0.00025940337224383825,-0.0,-0.0
0.09254813194274902,0.001725754719299033,0.04901197833218873,-0.00025940337224383825,-0.0,-0.0
0.0948336124420166,0.001725754719299033,0.07721065079728362,-0.0827496757457844,-0.0,-0.0
0.09696054458618164,0.001725754719299033,0.10406652933546923,-0.00025940337224383825,-0.0,-0.0
0.09905266761779785,0.001725754719299033,0.022156099794003126,-0.00025940337224383825,-0.0,-0.0
0.10143423080444336,0.0021092557680315593,-0.011413748378728883,-0.03968871595330725,-0.0,-0.0
0.10360145568847656,0.0021092557680315593,0.07586785687037434,-0.00025940337224383825,-0.0,-0.0
0.10590314865112305,0.001725754719299033,-0.018127718013275285,-0.019974059662775545,-0.0,-0.0
0.10802316665649414,0.001725754719299033,0.0060425726710917615,-0.00025940337224383825,-0.0,-0.0
0.1104280948638916,0.0021092557680315593,0.0020141908903639205,-0.00025940337224383825,-0.0,-0.0
0.1126861572265625,0.0021092557680315593,0.06646829938200938,-0.00025940337224383825,-0.0,-0.0
0.11479902267456055,0.0021092557680315593,0.004699778744182481,-0.10090791180285308,-0.0,-0.0
0.1169438362121582,0.001725754719299033,0.024841687647821686,-0.00025940337224383825,-0.0,-0.0
0.11887192726135254,0.001725754719299033,-0.06915388723582794,-0.24098573281452573,-0.0,-0.0
0.12094759941101074,0.001725754719299033,-0.0852674143587393,-0.08482490272373511,-0.0,-0.0
0.12292647361755371,0.001725754719299033,-0.023498893720912406,-0.059922178988326635,-0.0,-0.0
0.12494301795959473,0.001725754719299033,-0.018127718013275285,-0.10246433203631611,-0.0,-0.0
0.12687921524047852,0.0013422536705647303,-0.0785534447241929,-0.00025940337224383825,-0.0,-0.0
0.12885665893554688,0.0013422536705647303,-0.0651255054551001,-0.00025940337224383825,-0.0,-0.0
0.13085222244262695,0.0013422536705647303,-0.06378271152819082,-0.00025940337224383825,-0.0,-0.0
0.13292360305786133,0.0013422536705647303,-0.05169756618600729,-0.00025940337224383825,-0.0,-0.0
0.13495445251464844,0.0013422536705647303,-0.011413748378728883,-0.04124513618677028,-0.0,-0.0
0.1370236873626709,0.0013422536705647303,-0.04632639047837017,-0.040726329442282605,-0.0,-0.0
0.1391148567199707,0.000958752621832204,0.019470511940184565,-0.00025940337224383825,-0.0,-0.0
0.14110279083251953,0.000958752621832204,-0.04498359655146089,-0.16160830090791123,-0.0,-0.0
0.14313411712646484,0.000958752621832204,0.0060425726710917615,-0.03553826199740584,-0.0,-0.0
0.14511823654174805,0.000958752621832204,-0.07318226901655578,-0.00025940337224383825,-0.0,-0.0
0.1470935344696045,0.000958752621832204,-0.03826962691691449,-0.037613488975356546,-0.0,-0.0
0.1491701602935791,0.0005752515730996777,0.05169756618600729,-0.00025940337224383825,-0.0,-0.0
0.15116548538208008,0.0005752515730996777,-0.08392462043183002,-0.058365758754863606,-0.0,-0.0
0.15326166152954102,0.0005752515730996777,0.019470511940184565,0.015304798962386457,-0.0,-0.0
0.15532970428466797,0.0005752515730996777,-0.0852674143587393,-0.1003891050583654,-0.0,-0.0
0.15738487243652344,0.0005752515730996777,-0.015442130159456724,-0.00025940337224383825,-0.0,-0.0
0.15936493873596191,0.00019175052436715134,-0.03424124513618665,-0.00025940337224383825,-0.0,-0.0
0.16146087646484375,0.00019175052436715134,-0.015442130159456724,-0.1444876783398179,-0.0,-0.0
0.16347384452819824,0.00019175052436715134,-0.09466697184710426,-0.00025940337224383825,-0.0,-0.0
0.16553664207458496,0.00019175052436715134,0.020813305867093845,-0.00025940337224383825,-0.0,-0.0
0.16757965087890625,0.00019175052436715134,0.053040360112916574,-0.030350194552529075,-0.0,-0.0
0.16957950592041016,0.00019175052436715134,-0.12018005645838059,-0.00025940337224383825,-0.0,-0.0
0.17159819602966309,-0.00019175052436715134,-0.027527275501640247,-0.00025940337224383825,-0.0,-0.0
0.17371606826782227,0.00019175052436715134,0.08392462043183002,-0.00025940337224383825,-0.0,-0.0
0.17569303512573242,-0.00019175052436715134,0.03289845120927737,-0.00025940337224383825,-0.0,-0.0
0.17780423164367676,-0.00019175052436715134,-0.08929579613946714,-0.00025940337224383825,-0.0,-0.0
0.17987751960754395,-0.00019175052436715134,0.024841687647821686,-0.00025940337224383825,-0.0,-0.0
0.1819295883178711,-0.00019175052436715134,0.030212863355458808,-0.00025940337224383825,-0.0,-0.0
0.18387532234191895,-0.00019175052436715134,-0.011413748378728883,-0.00025940337224383825,-0.0,-0.0
0.18610548973083496,-0.00019175052436715134,-0.04632639047837017,-0.00025940337224383825,-0.0,-0.0
0.18813467025756836,-0.00019175052436715134,-0.008728160524910322,-0.0651102464332034,-0.0,-0.0
0.1902484893798828,-0.0005752515730996777,0.03692683299000521,-0.00025940337224383825,-0.0,-0.0
0.19238591194152832,-0.00019175052436715134,0.007385366598001042,-0.00025940337224383825,-0.0,-0.0
0.19444823265075684,-0.0005752515730996777,-0.018127718013275285,-0.00025940337224383825,-0.0,-0.0
0.19649791717529297,-0.00019175052436715134,0.014099336232547444,-0.00025940337224383825,-0.0,-0.0
0.19858074188232422,-0.0005752515730996777,-0.0006713969634546402,-0.015823605706874133,-0.0,-0.0
0.2006077766418457,-0.00019175052436715134,-0.015442130159456724,-0.00025940337224383825,-0.0,-0.0
0.2027881145477295,-0.00019175052436715134,-0.019470511940184565,-0.05162127107652381,-0.0,-0.0
0.20493865013122559,-0.00019175052436715134,0.016784924086366004,-0.00025940337224383825,-0.0,-0.0
0.20709562301635742,-0.00019175052436715134,-0.03961242084382377,-0.00025940337224383825,-0.0,-0.0
0.20928359031677246,-0.00019175052436715134,0.04766918440527945,-0.00025940337224383825,-0.0,-0.0
0.21144795417785645,-0.00019175052436715134,0.007385366598001042,-0.00025940337224383825,-0.0,-0.0
0.21354365348815918,-0.00019175052436715134,0.007385366598001042,-0.00025940337224383825,-0.0,-0.0
0.21555304527282715,-0.0005752515730996777,-0.03289845120927737,-0.00025940337224383825,-0.0,-0.0
0.217606782913208,-0.00019175052436715134,-0.018127718013275285,-0.00025940337224383825,-0.0,-0.0
0.2196063995361328,-0.00019175052436715134,0.08258182650492074,-0.06926070038910481,-0.0,-0.0
0.22168612480163574,-0.00019175052436715134,-0.015442130159456724,-0.00025940337224383825,-0.0,-0.0
0.22385501861572266,-0.00019175052436715134,0.04632639047837017,-0.00025940337224383825,-0.0,-0.0
0.2259063720703125,-0.00019175052436715134,0.04095521477073305,-0.08015564202334602,-0.0,-0.0
0.22791314125061035,-0.00019175052436715134,-0.054383154039825854,-0.004928664072632927,-0.0,-0.0
0.22998690605163574,-0.00019175052436715134,0.018127718013275285,-0.08638132295719814,-0.0,-0.0
0.23206043243408203,-0.00019175052436715134,-0.055725947966735134,-0.12996108949416296,-0.0,-0.0
0.23417997360229492,0.00019175052436715134,0.023498893720912406,-0.06666666666666643,-0.0,-0.0
0.2362995147705078,0.00019175052436715134,0.020813305867093845,-0.06562905317769108,-0.0,-0.0
0.238480806350708,0.00019175052436715134,0.06378271152819082,-0.00025940337224383825,-0.0,-0.0
0.24080967903137207,0.00019175052436715134,0.023498893720912406,-0.00025940337224383825,-0.0,-0.0
0.24313807487487793,0.00019175052436715134,0.0718394750896465,-0.09623865110246399,-0.0,-0.0
0.24515771865844727,0.00019175052436715134,-0.010070954451819603,-0.06822308690012946,-0.0,-0.0
0.2473304271697998,0.00019175052436715134,0.03826962691691449,-0.03138780804150443,-0.0,-0.0
0.24932551383972168,0.00019175052436715134,-0.03424124513618665,-0.04124513618677028,-0.0,-0.0
0.2514379024505615,0.00019175052436715134,-0.0020141908903639205,-0.07029831387808017,-0.0,-0.0
0.25351810455322266,0.00019175052436715134,0.0718394750896465,-0.07029831387808017,-0.0,-0.0
0.2555556297302246,0.00019175052436715134,0.008728160524910322,-0.05888456549935128,-0.0,-0.0
0.2576134204864502,0.00019175052436715134,-0.03826962691691449,-0.028793774319066046,-0.0,-0.0
0.25969743728637695,0.0005752515730996777,0.04364080262455161,-0.0630350194552527,-0.0,-0.0
0.26186180114746094,0.0005752515730996777,0.07049668116273722,-0.16627756160830032,-0.0,-0.0
0.2639138698577881,0.0005752515730996777,-0.04229800869764233,-0.06355382619974037,-0.0,-0.0
0.26595568656921387,0.0005752515730996777,0.028870069428549527,-0.0671854734111541,-0.0,-0.0
0.267897367477417,0.0005752515730996777,-0.03424124513618665,-0.23424124513618594,-0.0,-0.0
0.2699320316314697,0.0005752515730996777,0.04901197833218873,-0.00025940337224383825,-0.0,-0.0
0.271869421005249,0.0005752515730996777,0.028870069428549527,-0.20051880674448697,-0.0,-0.0
0.27370190620422363,0.0005752515730996777,-0.03558403906309593,-0.03968871595330725,-0.0,-0.0
0.2755722999572754,0.0005752515730996777,-0.03424124513618665,-0.1289234760051876,-0.0,-0.0
0.2774689197540283,0.0005752515730996777,0.07721065079728362,-0.04487678339818402,-0.0,-0.0
0.279447078704834,0.0005752515730996777,-0.061097123674372256,-0.1994811932555116,-0.0,-0.0
0.2813856601715088,0.0005752515730996777,0.023498893720912406,-0.04591439688715937,-0.0,-0.0
0.2832944393157959,0.00019175052436715134,-0.08392462043183002,-0.23112840466925988,-0.0,-0.0
0.285325288772583,0.0005752515730996777,0.022156099794003126,-0.1159533073929957,-0.0,-0.0
0.28738999366760254,0.0005752515730996777,-0.030212863355458808,-0.033463035019455134,-0.0,-0.0
0.2894778251647949,0.0005752515730996777,-0.07452506294346506,-0.01634241245136181,-0.0,-0.0
0.29160237312316895,0.0005752515730996777,-0.016784924086366004,-0.23009079118028453,-0.0,-0.0
0.2938063144683838,0.0005752515730996777,-0.018127718013275285,-0.24202334630350109,-0.0,-0.0
0.29618406295776367,0.0005752515730996777,-0.053040360112916574,-0.09675745784695167,-0.0,-0.0
0.2985055446624756,0.0005752515730996777,-0.04901197833218873,-0.2570687418936437,-0.0,-0.0
0.3008120059967041,0.0005752515730996777,0.04095521477073305,-0.23476005188067361,-0.0,-0.0
0.30307722091674805,0.0005752515730996777,0.018127718013275285,-0.06770428015564178,-0.0,-0.0
0.30524206161499023,0.0005752515730996777,0.0006713969634546402,-0.23579766536964897,-0.0,-0.0
0.307572603225708,0.0005752515730996777,-0.028870069428549527,-0.046433203631647046,-0.0,-0.0
0.30974578857421875,0.0005752515730996777,0.008728160524910322,-0.17665369649805385,-0.0,-0.0
0.3119697570800781,0.0005752515730996777,-0.058411535820553695,-0.2529182879377423,-0.0,-0.0
0.31412720680236816,0.0005752515730996777,0.012756542305638163,-0.1444876783398179,-0.0,-0.0
0.3162527084350586,0.0005752515730996777,0.03289845120927737,-0.043839169909208664,-0.0,-0.0
0.31844449043273926,0.0005752515730996777,-0.03289845120927737,-0.22438391699092008,-0.0,-0.0
0.3204503059387207,0.0005752515730996777,-0.027527275501640247,-0.00025940337224383825,-0.0,-0.0
0.3224489688873291,0.00019175052436715134,-0.04095521477073305,-0.10661478599221752,-0.0,-0.0
0.32452988624572754,0.0005752515730996777,0.024841687647821686,-0.16990920881971405,-0.0,-0.0
0.3265552520751953,0.0005752515730996777,0.007385366598001042,-0.1092088197146559,-0.0,-0.0
0.3286099433898926,0.0005752515730996777,0.057068741893644415,-0.20778210116731444,-0.0,-0.0
0.3306870460510254,0.0005752515730996777,-0.03289845120927737,-0.26588845654993776,-0.0,-0.0
0.3327953815460205,0.0005752515730996777,0.0060425726710917615,-0.00025940337224383825,-0.0,-0.0
0.3350181579589844,0.00019175052436715134,0.004699778744182481,-0.00025940337224383825,-0.0,-0.0
0.33706045150756836,0.00019175052436715134,-0.014099336232547444,-0.1974059662775609,-0.0,-0.0
0.3391609191894531,0.00019175052436715134,-0.030212863355458808,-0.1999999999999993,-0.0,-0.0
0.34127020835876465,0.0005752515730996777,-0.0006713969634546402,-0.00025940337224383825,-0.0,-0.0
0.3432881832122803,0.00019175052436715134,-0.061097123674372256,-0.09416342412451328,-0.0,-0.0
0.34542036056518555,0.00019175052436715134,-0.0718394750896465,-0.08015564202334602,-0.0,-0.0
0.3473336696624756,0.00019175052436715134,-0.0020141908903639205,-0.00025940337224383825,-0.0,-0.0
0.34944725036621094,0.00019175052436715134,-0.054383154039825854,-0.033463035019455134,-0.0,-0.0
0.3514516353607178,0.00019175052436715134,-0.0060425726710917615,-0.00025940337224383825,-0.0,-0.0
0.35353660583496094,0.00019175052436715134,-0.03826962691691449,-0.00025940337224383825,-0.0,-0.0
0.3556957244873047,0.00019175052436715134,-0.027527275501640247,-0.09779507133592702,-0.0,-0.0
0.35780954360961914,-0.00019175052436715134,-0.05035477225909801,-0.028793774319066046,-0.0,-0.0
0.3598451614379883,0.00019175052436715134,0.10943770504310635,-0.1268482490272369,-0.0,-0.0
0.36192965507507324,0.00019175052436715134,-0.04229800869764233,-0.00025940337224383825,-0.0,-0.0
0.3639562129974365,0.00019175052436715134,0.004699778744182481,-0.00025940337224383825,-0.0,-0.0
0.36603450775146484,0.00019175052436715134,-0.04498359655146089,-0.005447470817120603,-0.0,-0.0
0.3680739402770996,0.00019175052436715134,0.003356984817273201,-0.05784695201037593,-0.0,-0.0
0.37015652656555176,0.00019175052436715134,-0.004699778744182481,-0.00025940337224383825,-0.0,-0.0
0.37225770950317383,0.00019175052436715134,-0.058411535820553695,-0.07808041504539531,-0.0,-0.0
0.3744192123413086,-0.00019175052436715134,-0.026184481574730967,-0.00025940337224383825,-0.0,-0.0
0.37646937370300293,0.00019175052436715134,0.014099336232547444,-0.19844357976653626,-0.0,-0.0
0.3784463405609131,-0.00019175052436715134,0.0651255054551001,-0.06874189364461714,-0.0,-0.0
0.3804776668548584,0.00019175052436715134,0.054383154039825854,-0.1730220492866401,-0.0,-0.0
0.38248705863952637,0.00019175052436715134,-0.03692683299000521,-0.03398184176394281,-0.0,-0.0
0.38445329666137695,0.00019175052436715134,0.0020141908903639205,-0.0806744487678337,-0.0,-0.0
0.38653063774108887,0.00019175052436715134,-0.024841687647821686,-0.00025940337224383825,-0.0,-0.0
0.3885612487792969,0.00019175052436715134,-0.03155565728236809,-0.00025940337224383825,-0.0,-0.0
0.39063453674316406,0.00019175052436715134,-0.03558403906309593,-0.14137483787289185,-0.0,-0.0
0.39278554916381836,0.00019175052436715134,-0.026184481574730967,-0.1688715953307387,-0.0,-0.0
0.3949110507965088,0.00019175052436715134,-0.04095521477073305,-0.03294422827496746,-0.0,-0.0
0.3969101905822754,0.00019175052436715134,-0.03289845120927737,-0.006485084306095956,-0.0,-0.0
0.3990199565887451,0.00019175052436715134,-0.0060425726710917615,-0.1444876783398179,-0.0,-0.0
0.40102100372314453,0.00019175052436715134,0.020813305867093845,-0.1247730220492862,-0.0,-0.0
0.403181791305542,0.00019175052436715134,-0.03692683299000521,-0.10557717250324217,-0.0,-0.0
0.4055197238922119,0.0005752515730996777,0.07721065079728362,-0.08741893644617349,-0.0,-0.0
0.407667875289917,0.00019175052436715134,0.058411535820553695,-0.09416342412451328,-0.0,-0.0
0.40970849990844727,0.0005752515730996777,0.014099336232547444,-0.06251621271076502,-0.0,-0.0
0.41168832778930664,0.0005752515730996777,-0.004699778744182481,-0.08326848249027208,-0.0,-0.0
0.4137258529663086,0.0005752515730996777,0.012756542305638163,-0.00025940337224383825,-0.0,-0.0
0.4157874584197998,0.0005752515730996777,0.015442130159456724,-0.12788586251621226,-0.0,-0.0
0.4179692268371582,0.0005752515730996777,-0.019470511940184565,-0.15226977950713305,-0.0,-0.0
0.42006373405456543,0.0005752515730996777,0.023498893720912406,-0.20207522697795,-0.0,-0.0
0.42199254035949707,0.0005752515730996777,0.07318226901655578,-0.08015564202334602,-0.0,-0.0
0.42397308349609375,0.0005752515730996777,-0.023498893720912406,-0.08171206225680905,-0.0,-0.0
0.4260587692260742,0.0005752515730996777,-0.03826962691691449,-0.10402075226977914,-0.0,-0.0
0.42847704887390137,0.0005752515730996777,0.023498893720912406,-0.27678339818417896,-0.0,-0.0
0.43065571784973145,0.0005752515730996777,0.08123903257801146,-0.16368352788586193,-0.0,-0.0
0.4329819679260254,0.0005752515730996777,0.05169756618600729,-0.16108949416342355,-0.0,-0.0
0.4351515769958496,0.0005752515730996777,0.008728160524910322,-0.12788586251621226,-0.0,-0.0
