time,position,velocity,torque,position_ref,velocity_ref
2.384185791015625e-07,-0.1075720441696113,0.07318226901655578,-0.00025940337224383825,-0.0,-0.0
0.002105712890625,-0.10718854312087878,0.2504310673685808,0.8459143968871601,-0.0,-0.0
0.004233598709106445,-0.10603803997467942,0.5001907377737069,0.8402075226977956,-0.0,-0.0
0.006404876708984375,-0.10488753682848007,0.7163805600061011,0.8557717250324259,-0.0,-0.0
0.008431196212768555,-0.10297003158481566,0.8184328984512064,0.9273670557717253,-0.0,-0.0
0.010757207870483398,-0.10066902529241695,0.97956816968032,1.0228274967574578,-0.0,-0.0
0.013111591339111328,-0.09798451795128571,1.0937056534676088,1.2007782101167308,-0.0,-0.0
0.015437602996826172,-0.09530001061015447,1.2373846036469018,1.3097276264591429,-0.0,-0.0
0.017343759536743164,-0.09299900431775576,1.2199282825970812,1.489234760051879,-0.0,-0.0
0.019461393356323242,-0.0903144969766263,1.1863584344243492,1.607003891050585,-0.0,-0.0
0.02148127555847168,-0.08762998963549506,1.2373846036469018,1.6832684824902735,-0.0,-0.0
0.0236055850982666,-0.084178480196897,1.4213473716334803,1.7647211413748387,-0.0,-0.0
0.025715351104736328,-0.08111047180703324,1.4267185473411175,1.7911802853437102,-0.0,-0.0
0.02802443504333496,-0.07765896236843517,1.6764782177462436,1.708171206225682,-0.0,-0.0
0.030268430709838867,-0.07382395188110635,1.697962920576792,1.7315175097276274,-0.0,-0.0
0.03234219551086426,-0.07037244244250829,1.711390859845885,1.8311284046692613,-0.0,-0.0
0.03449749946594238,-0.0665374319551777,1.7127336537727942,1.9457846952010378,-0.0,-0.0
0.03673529624938965,-0.0630859225165814,1.778530556191349,2.07704280155642,-0.0,-0.0
0.038878440856933594,-0.05925091202925081,1.750331883726254,2.2269779507133585,-0.0,-0.0
0.04102492332458496,-0.05579940259065452,1.6415655756466023,2.320881971465628,-0.0,-0.0
0.04296708106994629,-0.05234789315205646,1.7624170290684376,2.492607003891049,-0.0,-0.0
0.04488182067871094,-0.049279884762192694,1.5851682307164126,2.583398184176392,-0.0,-0.0
0.04700112342834473,-0.04582837532359463,1.563683527885864,2.724513618677044,-0.0,-0.0
0.04904890060424805,-0.04314386798246517,1.4898298619058536,2.873411154345007,-0.0,-0.0
0.05115628242492676,-0.04007585959259963,1.300495918211638,2.8931258106355386,-0.0,-0.0
0.05334949493408203,-0.03739135225146839,1.2642404821850874,2.99325551232166,-0.0,-0.0
0.055745840072631836,-0.03470684491033715,1.1675593194476193,3.0824902723735406,-0.0,-0.0
0.05802488327026367,-0.032789339666672745,0.9486839093614066,2.9559014267185475,-0.0,-0.0
0.0601353645324707,-0.030871834423008337,0.8573739223315755,2.857328145265889,-0.0,-0.0
0.0621647834777832,-0.029337830228076456,0.7674067292286537,2.826718547341116,-0.0,-0.0
0.06404519081115723,-0.027803826033144574,0.7136949721522825,2.886381322957199,-0.0,-0.0
0.06596779823303223,-0.02665332288694522,0.7338368810559217,2.6409857328145243,-0.0,-0.0
0.06788349151611328,-0.025119318692013337,0.7002670328831897,2.440726329442281,-0.0,-0.0
0.0698552131652832,-0.02358531449707968,0.6760967421988227,2.3571984435797653,-0.0,-0.0
0.07201957702636719,-0.022051310302147797,0.7069810025177361,2.169909208819714,-0.0,-0.0
0.07430291175842285,-0.020517306107215916,0.6948958571755526,2.014267185473411,-0.0,-0.0
0.07659506797790527,-0.01936680296101656,0.5001907377737069,2.017898832684825,-0.0,-0.0
0.07876062393188477,-0.01821629981481898,0.5095902952620719,1.9748378728923477,-0.0,-0.0
0.0807497501373291,-0.017449297717352152,0.582101167315173,1.8840466926070043,-0.0,-0.0
0.08288121223449707,-0.016298794571152797,0.40350957503623874,1.7808041504539567,-0.0,-0.0
0.08496570587158203,-0.015531792473687744,0.38202487220569026,1.6822308690012981,-0.0,-0.0
0.08691072463989258,-0.014381289327488389,0.3941100175478738,1.6557717250324266,-0.0,-0.0
0.08888363838195801,-0.013997788278755863,0.39008163576714594,1.532295719844356,-0.0,-0.0
0.09096741676330566,-0.013230786181289034,0.3162279697871355,1.4871595330739282,-0.0,-0.0
0.09300971031188965,-0.012463784083822205,0.2987716487373149,1.4015564202334616,-0.0,-0.0
0.09525203704833984,-0.011696781986357152,0.36322575722896033,1.3444876783398172,-0.0,-0.0
0.09753966331481934,-0.010929779888890323,0.39679560540169234,1.3792477302204915,-0.0,-0.0
0.09969854354858398,-0.010546278840157797,0.3390554665445933,1.3460440985732802,-0.0,-0.0
0.10196709632873535,-0.01016277779142527,0.160463874265659,1.2728923476005178,-0.0,-0.0
0.10410356521606445,-0.009395775693958441,0.23297474631876014,1.230869001297016,-0.0,-0.0
0.10620880126953125,-0.009012274645225915,0.19269092851148173,1.2329442282749667,-0.0,-0.0
0.1080467700958252,-0.009012274645225915,0.04095521477073305,1.1343709468223082,-0.0,-0.0
0.10990691184997559,-0.008245272547759086,0.2007476920729374,1.0892347600518804,-0.0,-0.0
0.11182880401611328,-0.008245272547759086,0.17254901960784252,1.0357976653696497,-0.0,-0.0
0.1138145923614502,-0.00786177149902656,0.14166475928892908,0.927885862516213,-0.0,-0.0
0.11614322662353516,-0.007478270450294033,0.2759441519798571,0.8319066147859928,-0.0,-0.0
0.1183626651763916,-0.006711268352827204,0.3162279697871355,0.7743190661478607,-0.0,-0.0
0.12064957618713379,-0.006327767304094678,0.07721065079728362,0.7068741893644628,-0.0,-0.0
0.1229398250579834,-0.005944266255362152,0.16314946211947756,0.6560311284046705,-0.0,-0.0
0.12513518333435059,-0.005560765206629625,0.26654459449149215,0.6607003891050596,-0.0,-0.0
0.12723898887634277,-0.005177264157895323,0.2074616617074838,0.5553826199740612,-0.0,-0.0
0.1291513442993164,-0.004793763109162796,0.1819485770962075,0.4977950713359256,-0.0,-0.0
0.13120603561401367,-0.00441026206043027,0.11883726253147131,0.3167315175097265,-0.0,-0.0
0.13323545455932617,-0.004026761011695967,0.09735255970092282,0.3717250324254202,-0.0,-0.0
0.13536739349365234,-0.003643259962963441,0.14972152285038476,0.31102464332036206,-0.0,-0.0
0.13754010200500488,-0.0032597589142309147,0.012756542305638163,0.021530479896238575,-0.0,-0.0
0.13958287239074707,-0.0028762578654983884,0.12018005645838059,-0.00025940337224383825,-0.0,-0.0
0.14169549942016602,-0.0028762578654983884,0.04498359655146089,0.21037613488975282,-0.0,-0.0
0.14378881454467773,-0.0024927568167640857,0.07989623865110218,0.12269779507133549,-0.0,-0.0
0.14576125144958496,-0.0024927568167640857,0.03424124513618665,0.06095979247730199,-0.0,-0.0
0.1476573944091797,-0.0021092557680315593,0.11480888075074347,0.20363164721141302,-0.0,-0.0
0.14955806732177734,-0.0021092557680315593,-0.05169756618600729,-0.00025940337224383825,-0.0,-0.0
0.1514279842376709,-0.0021092557680315593,0.058411535820553695,0.07341115434500622,-0.0,-0.0
0.15331101417541504,-0.0021092557680315593,0.09332417792019498,0.20985732814526514,-0.0,-0.0
0.15520358085632324,-0.001725754719299033,0.04632639047837017,-0.00025940337224383825,-0.0,-0.0
0.15704894065856934,-0.0021092557680315593,-0.020813305867093845,0.18910505836575808,-0.0,-0.0
0.15907955169677734,-0.001725754719299033,0.022156099794003126,0.2856031128404659,-0.0,-0.0
0.16106605529785156,-0.0021092557680315593,0.014099336232547444,0.2150453955901419,-0.0,-0.0
0.1631152629852295,-0.0021092557680315593,-0.22088960097657662,0.07859922178988299,-0.0,-0.0
0.16526508331298828,-0.001725754719299033,0.03961242084382377,0.2752269779507124,-0.0,-0.0
0.16736388206481934,-0.0021092557680315593,-0.058411535820553695,0.28664072632944126,-0.0,-0.0
0.1694340705871582,-0.001725754719299033,0.04364080262455161,0.20363164721141302,-0.0,-0.0
0.17143917083740234,-0.0021092557680315593,0.04229800869764233,0.12425421530479852,-0.0,-0.0
0.1735529899597168,-0.0021092557680315593,-0.054383154039825854,0.29805447470817015,-0.0,-0.0
0.17568182945251465,-0.001725754719299033,-0.027527275501640247,0.10817120622568055,-0.0,-0.0
0.17783379554748535,-0.001725754719299033,-0.011413748378728883,0.29390402075226874,-0.0,-0.0
0.17988157272338867,-0.001725754719299033,-0.07989623865110218,-0.00025940337224383825,-0.0,-0.0
0.1821448802947998,-0.001725754719299033,0.08123903257801146,0.2415045395590134,-0.0,-0.0
0.18447661399841309,-0.0013422536705647303,-0.0006713969634546402,0.11232166018158196,-0.0,-0.0
0.18688392639160156,-0.001725754719299033,-0.1886625467307539,0.19584954604409788,-0.0,-0.0
0.1889781951904297,-0.0013422536705647303,-0.003356984817273201,0.20051880674448697,-0.0,-0.0
0.19103264808654785,-0.0013422536705647303,-0.020813305867093845,0.19636835278858555,-0.0,-0.0
0.19321346282958984,-0.0013422536705647303,0.0006713969634546402,0.20207522697795,-0.0,-0.0
0.19544148445129395,-0.0013422536705647303,-0.08392462043183002,0.027237354085603016,-0.0,-0.0
0.19761252403259277,-0.001725754719299033,-0.10943770504310635,0.11128404669260661,-0.0,-0.0
0.19955706596374512,-0.001725754719299033,-0.25848783093003647,0.12010376134889711,-0.0,-0.0
0.20192265510559082,-0.0021092557680315593,-0.17657740138857037,0.2970168612191948,-0.0,-0.0
0.2041769027709961,-0.001725754719299033,0.024841687647821686,0.17613488975356617,-0.0,-0.0
0.2064669132232666,-0.001725754719299033,-0.020813305867093845,0.23164721141374756,-0.0,-0.0
0.20873570442199707,-0.001725754719299033,0.06378271152819082,0.30946822308689903,-0.0,-0.0
0.21094059944152832,-0.0021092557680315593,0.018127718013275285,0.21348897535667888,-0.0,-0.0
0.2130568027496338,-0.001725754719299033,-0.03961242084382377,0.22230869001296938,-0.0,-0.0
0.21510744094848633,-0.0021092557680315593,-0.03961242084382377,0.2907911802853427,-0.0,-0.0
0.21728754043579102,-0.001725754719299033,0.016784924086366004,0.18806744487678273,-0.0,-0.0
0.21946334838867188,-0.001725754719299033,0.04364080262455161,0.28715953307392894,-0.0,-0.0
0.22150278091430664,-0.001725754719299033,0.007385366598001042,0.23579766536964897,-0.0,-0.0
0.22365784645080566,-0.0021092557680315593,0.0651255054551001,0.26536964980544653,-0.0,-0.0
0.22588372230529785,-0.0021092557680315593,0.0006713969634546402,0.2575875486381314,-0.0,-0.0
0.22823047637939453,-0.001725754719299033,0.061097123674372256,0.2773022049286631,-0.0,-0.0
0.23038578033447266,-0.001725754719299033,-0.0852674143587393,0.33333333333333215,-0.0,-0.0
0.2325127124786377,-0.0021092557680315593,-0.04632639047837017,0.37068741893644486,-0.0,-0.0
0.23457980155944824,-0.0021092557680315593,0.0060425726710917615,0.2928664072632934,-0.0,-0.0
0.23673677444458008,-0.001725754719299033,0.0060425726710917615,0.2684824902723726,-0.0,-0.0
0.23895835876464844,-0.001725754719299033,-0.03155565728236809,0.34682230869001174,-0.0,-0.0
0.24103832244873047,-0.001725754719299033,-0.04498359655146089,0.3172503242542142,-0.0,-0.0
0.24310588836669922,-0.001725754719299033,0.09466697184710426,0.2700389105058356,-0.0,-0.0
0.24525880813598633,-0.001725754719299033,0.160463874265659,0.28664072632944126,-0.0,-0.0
0.2474372386932373,-0.001725754719299033,0.08123903257801146,0.3566796368352776,-0.0,-0.0
0.2495555877685547,-0.001725754719299033,-0.06378271152819082,0.2596627756160821,-0.0,-0.0
0.2516825199127197,-0.001725754719299033,-0.022156099794003126,0.16368352788586193,-0.0,-0.0
0.25388598442077637,-0.001725754719299033,0.03558403906309593,0.2773022049286631,-0.0,-0.0
0.2560272216796875,-0.001725754719299033,0.0060425726710917615,0.2856031128404659,-0.0,-0.0
0.25805044174194336,-0.001725754719299033,-0.03826962691691449,0.07756160830090764,-0.0,-0.0
0.26007843017578125,-0.001725754719299033,0.04364080262455161,0.21815823605706797,-0.0,-0.0
0.26210618019104004,-0.001725754719299033,0.04229800869764233,0.2596627756160821,-0.0,-0.0
0.26436400413513184,-0.001725754719299033,-0.010070954451819603,0.1953307392996102,-0.0,-0.0
0.2663102149963379,-0.0013422536705647303,0.04632639047837017,0.31102464332036206,-0.0,-0.0
0.2684338092803955,-0.001725754719299033,0.03155565728236809,0.07029831387808017,-0.0,-0.0
0.2705042362213135,-0.001725754719299033,-0.022156099794003126,0.16939040207522638,-0.0,-0.0
0.27255821228027344,-0.001725754719299033,0.023498893720912406,0.2217898832684817,-0.0,-0.0
0.27447009086608887,-0.0013422536705647303,0.061097123674372256,0.24461738002593947,-0.0,-0.0
0.27627992630004883,-0.001725754719299033,0.016784924086366004,0.07652399481193228,-0.0,-0.0
0.27831268310546875,-0.001725754719299033,-0.1873197528038446,0.021011673151750898,-0.0,-0.0
0.2804584503173828,-0.001725754719299033,-0.007385366598001042,0.13307392996108902,-0.0,-0.0
0.2823772430419922,-0.001725754719299033,0.04229800869764233,-0.00025940337224383825,-0.0,-0.0
0.28430604934692383,-0.0013422536705647303,0.21283283741512093,0.07859922178988299,-0.0,-0.0
0.28620386123657227,-0.001725754719299033,-0.003356984817273201,0.1906614785992211,-0.0,-0.0
0.28826236724853516,-0.001725754719299033,0.07989623865110218,0.237354085603112,-0.0,-0.0
0.29047203063964844,-0.0013422536705647303,0.058411535820553695,0.2617380025940328,-0.0,-0.0
0.2926907539367676,-0.001725754719299033,-0.061097123674372256,0.10661478599221752,-0.0,-0.0
0.2947275638580322,-0.0013422536705647303,-0.010070954451819603,0.18599221789883202,-0.0,-0.0
0.29694271087646484,-0.0013422536705647303,-0.06646829938200938,0.14760051880674396,-0.0,-0.0
0.2990541458129883,-0.001725754719299033,-0.0986953536278321,0.13929961089494114,-0.0,-0.0
0.3011467456817627,-0.0013422536705647303,0.03424124513618665,0.3073929961089483,-0.0,-0.0
0.3034038543701172,-0.001725754719299033,-0.011413748378728883,0.18339818417639364,-0.0,-0.0
0.3053131103515625,-0.0013422536705647303,-0.055725947966735134,0.08430609597924743,-0.0,-0.0
0.307436466217041,-0.001725754719299033,-0.09600976577401354,0.30635538261997297,-0.0,-0.0
0.3096933364868164,-0.0013422536705647303,0.06378271152819082,0.12944228274967529,-0.0,-0.0
0.3118898868560791,-0.001725754719299033,0.11480888075074347,0.22438391699092008,-0.0,-0.0
0.3139212131500244,-0.001725754719299033,-0.22491798275730446,0.14396887159533023,-0.0,-0.0
0.31593966484069824,-0.0013422536705647303,0.058411535820553695,0.10453955901426681,-0.0,-0.0
0.3178868293762207,-0.001725754719299033,-0.04632639047837017,0.30687418936446065,-0.0,-0.0
0.3199436664581299,-0.001725754719299033,-0.015442130159456724,0.023086900129701604,-0.0,-0.0
0.322054386138916,-0.001725754719299033,0.10003814755474139,0.1553826199740591,-0.0,-0.0
0.3242917060852051,-0.001725754719299033,-0.018127718013275285,0.1579766536964975,-0.0,-0.0
0.3262612819671631,-0.001725754719299033,-0.016784924086366004,0.08638132295719814,-0.0,-0.0
0.32843995094299316,-0.001725754719299033,-0.04632639047837017,0.05732814526588825,-0.0,-0.0
0.33064866065979004,-0.001725754719299033,0.0006713969634546402,0.27107652399481097,-0.0,-0.0
0.33283257484436035,-0.001725754719299033,0.04364080262455161,0.03242542153047978,-0.0,-0.0
0.3350563049316406,-0.0013422536705647303,0.026184481574730967,0.26744487678339723,-0.0,-0.0
0.3372812271118164,-0.0013422536705647303,0.15509269855802188,0.23164721141374756,-0.0,-0.0
0.33943843841552734,-0.001725754719299033,-0.08661020828564858,0.1377431906614781,-0.0,-0.0
0.3415560722351074,-0.001725754719299033,-0.05169756618600729,0.256549935149156,-0.0,-0.0
0.34363555908203125,-0.001725754719299033,-0.058411535820553695,0.2907911802853427,-0.0,-0.0
0.3458881378173828,-0.001725754719299033,0.028870069428549527,0.16316472114137426,-0.0,-0.0
0.34802794456481934,-0.001725754719299033,0.016784924086366004,0.24773022049286553,-0.0,-0.0
0.35000038146972656,-0.001725754719299033,-0.07049668116273722,0.3193255512321649,-0.0,-0.0
0.3522646427154541,-0.001725754719299033,-0.0060425726710917615,0.36861219195849415,-0.0,-0.0
0.3545033931732178,-0.001725754719299033,-0.010070954451819603,0.27833981841763844,-0.0,-0.0
0.3567843437194824,-0.0021092557680315593,-0.04229800869764233,0.08482490272373511,-0.0,-0.0
0.3589746952056885,-0.0021092557680315593,0.06781109330891866,0.38002594033722303,-0.0,-0.0
0.36105895042419434,-0.0021092557680315593,-0.016784924086366004,0.37795071335927233,-0.0,-0.0
0.36310911178588867,-0.0021092557680315593,-0.11749446860456203,0.37846952010376,-0.0,-0.0
0.3652322292327881,-0.0021092557680315593,0.11615167467765275,0.237354085603112,-0.0,-0.0
0.36745190620422363,-0.0021092557680315593,0.03692683299000521,0.3831387808041491,-0.0,-0.0
0.3694789409637451,-0.0021092557680315593,-0.008728160524910322,0.3743190661478586,-0.0,-0.0
0.37143898010253906,-0.0021092557680315593,-0.1403219653620198,0.4054474708171192,-0.0,-0.0
0.37369561195373535,-0.0021092557680315593,-0.016784924086366004,0.3654993514915681,-0.0,-0.0
0.37606048583984375,-0.0021092557680315593,-0.062439917601281536,0.41478599221789736,-0.0,-0.0
0.37810540199279785,-0.0021092557680315593,0.1873197528038446,0.3603112840466913,-0.0,-0.0
0.38015317916870117,-0.0021092557680315593,-0.0006713969634546402,0.40440985732814383,-0.0,-0.0
0.3820490837097168,-0.0021092557680315593,-0.10003814755474139,0.31361867704280044,-0.0,-0.0
0.3839099407196045,-0.0021092557680315593,0.04229800869764233,0.37535667963683395,-0.0,-0.0
0.38588547706604004,-0.0024927568167640857,0.03692683299000521,0.33592736705577053,-0.0,-0.0
0.3877558708190918,-0.0021092557680315593,0.0060425726710917615,0.3670557717250311,-0.0,-0.0
0.3897674083709717,-0.0021092557680315593,0.0785534447241929,0.3514915693904008,-0.0,-0.0
0.39188432693481445,-0.0021092557680315593,0.09600976577401354,0.3499351491569378,-0.0,-0.0
0.39391398429870605,-0.0021092557680315593,-0.07049668116273722,0.34889753566796244,-0.0,-0.0
0.39597320556640625,-0.0024927568167640857,-0.055725947966735134,0.166796368352788,-0.0,-0.0
0.39794492721557617,-0.0021092557680315593,-0.09063859006637642,0.37535667963683395,-0.0,-0.0
0.40002965927124023,-0.0021092557680315593,0.053040360112916574,0.3540856031128392,-0.0,-0.0
0.40213584899902344,-0.0021092557680315593,-0.062439917601281536,0.4116731517509713,-0.0,-0.0
0.40399742126464844,-0.0021092557680315593,0.022156099794003126,0.34007782101167194,-0.0,-0.0
0.4058854579925537,-0.0021092557680315593,0.10406652933546923,0.21660181582360494,-0.0,-0.0
0.4077296257019043,-0.0021092557680315593,-0.05035477225909801,0.20726329442282676,-0.0,-0.0
0.4096221923828125,-0.0021092557680315593,0.12152285038528987,0.37950713359273536,-0.0,-0.0
0.4115023612976074,-0.0021092557680315593,0.10809491111619707,0.3390402075226966,-0.0,-0.0
0.41342973709106445,-0.0021092557680315593,-0.23431754024566942,0.1382619974059658,-0.0,-0.0
0.41545891761779785,-0.001725754719299033,0.04364080262455161,0.26277561608300815,-0.0,-0.0
0.41762542724609375,-0.0021092557680315593,-0.03961242084382377,0.3120622568093374,-0.0,-0.0
0.41992783546447754,-0.0021092557680315593,0.08258182650492074,0.23112840466925988,-0.0,-0.0
0.4221527576446533,-0.0021092557680315593,0.15240711070420332,0.2088197146562898,-0.0,-0.0
0.4243321418762207,-0.001725754719299033,0.0919813839932857,0.3566796368352776,-0.0,-0.0
0.4264564514160156,-0.001725754719299033,0.10540932326237851,0.023086900129701604,-0.0,-0.0
0.42845773696899414,-0.0021092557680315593,-0.023498893720912406,0.29182879377431803,-0.0,-0.0
0.4304640293121338,-0.001725754719299033,0.10809491111619707,-0.00025940337224383825,-0.0,-0.0
0.43247294425964355,-0.001725754719299033,-0.14972152285038476,-0.00025940337224383825,-0.0,-0.0
0.43451714515686035,-0.001725754719299033,-0.0006713969634546402,0.2835278858625152,-0.0,-0.0
0.436373233795166,-0.001725754719299033,-0.030212863355458808,0.05888456549935128,-0.0,-0.0
0.43865370750427246,-0.001725754719299033,0.03826962691691449,0.14500648508430558,-0.0,-0.0
0.4408228397369385,-0.001725754719299033,0.016784924086366004,0.2809338521400768,-0.0,-0.0
0.4429788589477539,-0.001725754719299033,0.007385366598001042,0.25395590142671765,-0.0,-0.0
0.44497227668762207,-0.001725754719299033,-0.03558403906309593,0.18962386511024576,-0.0,-0.0
0.44713377952575684,-0.001725754719299033,0.008728160524910322,0.23891050583657503,-0.0,-0.0
0.4492793083190918,-0.001725754719299033,-0.04901197833218873,0.2773022049286631,-0.0,-0.0
0.4512932300567627,-0.001725754719299033,0.007385366598001042,0.18962386511024576,-0.0,-0.0
0.4534337520599365,-0.001725754719299033,0.10540932326237851,0.31361867704280044,-0.0,-0.0
