time,position,velocity,torque,position_ref,velocity_ref
7.152557373046875e-07,0.053114895249523286,0.004699778744182481,-0.00025940337224383825,-0.0,-0.0
0.0021059513092041016,0.052731394200788984,-0.1819485770962075,-1.3771725032425426,-0.0,-0.0
0.004090547561645508,0.0511973900058571,-0.7472648203250216,-0.5636835278858641,-0.0,-0.0
0.006012439727783203,0.049279884762192694,-0.9688258182650529,-0.15019455252918235,-0.0,-0.0
0.008075714111328125,0.047362379518528286,-1.0117952239261498,-0.24306095979247644,-0.0,-0.0
0.010021686553955078,0.0454448742748621,-0.9862821393148735,-0.44228274967574777,-0.0,-0.0
0.012002944946289062,0.04314386798246517,-1.0010528725108756,-0.2809338521400804,-0.0,-0.0
0.014042854309082031,0.04122636273879898,-1.0373083085374262,-0.17042801556420173,-0.0,-0.0
0.016091108322143555,0.03892535644640205,-1.065506981002521,-0.19377431906614717,-0.0,-0.0
0.018110990524291992,0.03662435015400334,-1.065506981002521,-0.5507133592736722,-0.0,-0.0
0.020097970962524414,0.03470684491033715,-0.9809109636072364,-0.09260700389105025,-0.0,-0.0
0.022017955780029297,0.03240583861794022,-1.0762493324177953,-0.313618677042804,-0.0,-0.0
0.023947715759277344,0.030488333374274035,-1.0735637445639767,-0.17405966277561546,-0.0,-0.0
0.02595806121826172,0.0281873270818771,-1.1259327077134387,-0.28197146562905573,-0.0,-0.0
0.027845144271850586,0.02665332288694522,-0.9997100785839663,-0.17457846952010314,-0.0,-0.0
0.029715299606323242,0.024352316594546508,-1.103105210955981,-0.1974059662775609,-0.0,-0.0
0.03157687187194824,0.0224348113508821,-1.1057907988097995,-0.13514915693903973,-0.0,-0.0
0.03350424766540527,0.02013380505848339,-1.0708781567101582,-0.2555123216601807,-0.0,-0.0
0.035637855529785156,0.01821629981481898,-1.1017624170290716,-0.07652399481193228,-0.0,-0.0
0.0375828742980957,0.016298794571152797,-0.9621118486305065,-0.10142671854734076,-0.0,-0.0
0.03960251808166504,0.014381289327488389,-0.9459983215075951,-0.00025940337224383825,-0.0,-0.0
0.041579246520996094,0.012847285132556507,-0.8493171587701269,-0.00025940337224383825,-0.0,-0.0
0.04353141784667969,0.011313280937624626,-0.7929198138399371,-0.00025940337224383825,-0.0,-0.0
0.04544186592102051,0.009779276742692744,-0.8291752498664877,-0.20985732814526514,-0.0,-0.0
0.047369956970214844,0.008245272547759086,-0.7566643778133866,-0.09208819714656258,-0.0,-0.0
0.04917097091674805,0.007478270450294033,-0.6438696879529999,-0.07911802853437067,-0.0,-0.0
0.051085710525512695,0.005944266255362152,-0.6398413061722721,-0.00025940337224383825,-0.0,-0.0
0.05303764343261719,0.004793763109162796,-0.6559548332951834,-0.00025940337224383825,-0.0,-0.0
0.05492210388183594,0.003643259962963441,-0.5686732280460802,-0.006485084306095956,-0.0,-0.0
0.056873321533203125,0.0021092557680315593,-0.567330434119171,-0.00025940337224383825,-0.0,-0.0
0.05893993377685547,0.0013422536705647303,-0.6264133669031793,-0.00025940337224383825,-0.0,-0.0
0.06092524528503418,0.00019175052436715134,-0.548531319142441,-0.00025940337224383825,-0.0,-0.0
0.06307625770568848,-0.0005752515730996777,-0.43036545357442435,-0.00025940337224383825,-0.0,-0.0
0.06501531600952148,-0.0013422536705647303,-0.3793392843518717,-0.00025940337224383825,-0.0,-0.0
0.06694746017456055,-0.0024927568167640857,-0.38336766613259954,-0.00025940337224383825,-0.0,-0.0
0.06884646415710449,-0.0032597589142309147,-0.42902265964751507,-0.00025940337224383825,-0.0,-0.0
0.07074189186096191,-0.003643259962963441,-0.3779964904249624,-0.00025940337224383825,-0.0,-0.0
0.07264375686645508,-0.00441026206043027,-0.32159914549477264,-0.00025940337224383825,-0.0,-0.0
0.07453131675720215,-0.004793763109162796,-0.2987716487373149,-0.00025940337224383825,-0.0,-0.0
0.07644057273864746,-0.005177264157895323,-0.1886625467307539,-0.00025940337224383825,-0.0,-0.0
0.07858037948608398,-0.005560765206629625,-0.16449225604638684,-0.00025940337224383825,-0.0,-0.0
0.0806112289428711,-0.005944266255362152,-0.12823682001983627,-0.016861219195849486,-0.0,-0.0
0.08274483680725098,-0.006327767304094678,-0.1873197528038446,-0.00025940337224383825,-0.0,-0.0
0.0848088264465332,-0.006327767304094678,-0.059754329747462975,-0.00025940337224383825,-0.0,-0.0
0.0867149829864502,-0.006711268352827204,-0.13092240787365483,-0.00025940337224383825,-0.0,-0.0
0.08858489990234375,-0.006711268352827204,-0.09063859006637642,-0.00025940337224383825,-0.0,-0.0
0.0904998779296875,-0.006711268352827204,-0.026184481574730967,-0.00025940337224383825,-0.0,-0.0
0.09237360954284668,-0.006711268352827204,0.012756542305638163,-0.00025940337224383825,-0.0,-0.0
0.09439349174499512,-0.006711268352827204,-0.03155565728236809,-0.00025940337224383825,-0.0,-0.0
0.09629392623901367,-0.006711268352827204,-0.019470511940184565,-0.00025940337224383825,-0.0,-0.0
0.09817266464233398,-0.006711268352827204,0.018127718013275285,-0.00025940337224383825,-0.0,-0.0
0.10012316703796387,-0.006711268352827204,-0.019470511940184565,-0.00025940337224383825,-0.0,-0.0
0.10220026969909668,-0.006711268352827204,0.04901197833218873,0.0023346303501945442,-0.0,-0.0
0.10412740707397461,-0.006711268352827204,0.07586785687037434,-0.00025940337224383825,-0.0,-0.0
0.10616850852966309,-0.006711268352827204,0.019470511940184565,0.052658884565499164,-0.0,-0.0
0.1080467700958252,-0.006327767304094678,0.11480888075074347,0.15901426718547285,-0.0,-0.0
0.11001014709472656,-0.006327767304094678,0.057068741893644415,-0.00025940337224383825,-0.0,-0.0
0.11202096939086914,-0.005944266255362152,0.055725947966735134,0.0718547341115432,-0.0,-0.0
0.11401081085205078,-0.005944266255362152,0.07452506294346506,0.059922178988326635,-0.0,-0.0
0.11592960357666016,-0.005944266255362152,0.06646829938200938,-0.00025940337224383825,-0.0,-0.0
0.11785125732421875,-0.005560765206629625,0.14569314106965692,0.04280155642023331,-0.0,-0.0
0.11974906921386719,-0.005177264157895323,0.0919813839932857,-0.00025940337224383825,-0.0,-0.0
0.12169098854064941,-0.005177264157895323,0.11212329289692491,0.09779507133592702,-0.0,-0.0
0.12363839149475098,-0.005177264157895323,0.07721065079728362,0.2088197146562898,-0.0,-0.0
0.125732421875,-0.004793763109162796,0.058411535820553695,-0.00025940337224383825,-0.0,-0.0
0.12779998779296875,-0.004793763109162796,0.08661020828564858,0.06355382619974037,-0.0,-0.0
0.12966275215148926,-0.00441026206043027,0.1819485770962075,0.10298313878080378,-0.0,-0.0
0.13153386116027832,-0.004026761011695967,0.07318226901655578,0.2861219195849536,-0.0,-0.0
0.13349676132202148,-0.004026761011695967,0.09332417792019498,0.24098573281452573,-0.0,-0.0
0.13543987274169922,-0.003643259962963441,0.13495078965438267,0.13203631647211367,-0.0,-0.0
0.13743901252746582,-0.003643259962963441,0.13226520180056411,-0.00025940337224383825,-0.0,-0.0
0.13927173614501953,-0.0032597589142309147,0.1671778439002054,0.05369649805447452,-0.0,-0.0
0.14116907119750977,-0.0028762578654983884,0.10540932326237851,-0.00025940337224383825,-0.0,-0.0
0.14332056045532227,-0.0028762578654983884,0.17120622568093324,-0.00025940337224383825,-0.0,-0.0
0.14534568786621094,-0.0024927568167640857,0.04901197833218873,-0.00025940337224383825,-0.0,-0.0
0.14747881889343262,-0.0021092557680315593,0.2289463645380323,0.08326848249027208,-0.0,-0.0
0.14958572387695312,-0.0021092557680315593,0.1336079957274734,-0.00025940337224383825,-0.0,-0.0
0.15149927139282227,-0.001725754719299033,0.03155565728236809,-0.00025940337224383825,-0.0,-0.0
0.1534276008605957,-0.001725754719299033,0.07318226901655578,-0.00025940337224383825,-0.0,-0.0
0.15537667274475098,-0.0013422536705647303,0.061097123674372256,-0.00025940337224383825,-0.0,-0.0
0.157273530960083,-0.0013422536705647303,0.04901197833218873,-0.00025940337224383825,-0.0,-0.0
0.15917587280273438,-0.000958752621832204,0.13495078965438267,-0.00025940337224383825,-0.0,-0.0
0.16109514236450195,-0.0005752515730996777,0.05169756618600729,-0.00025940337224383825,-0.0,-0.0
0.1630992889404297,-0.000958752621832204,0.0020141908903639205,-0.00025940337224383825,-0.0,-0.0
0.1651592254638672,-0.0005752515730996777,0.03424124513618665,-0.00025940337224383825,-0.0,-0.0
0.16718339920043945,-0.0005752515730996777,0.05169756618600729,-0.00025940337224383825,-0.0,-0.0
0.16922450065612793,-0.0005752515730996777,-0.054383154039825854,-0.00025940337224383825,-0.0,-0.0
0.17127060890197754,-0.00019175052436715134,0.08929579613946714,-0.00025940337224383825,-0.0,-0.0
0.1731252670288086,-0.00019175052436715134,0.16449225604638684,0.019974059662775545,-0.0,-0.0
0.17501401901245117,-0.0005752515730996777,-0.007385366598001042,-0.00025940337224383825,-0.0,-0.0
0.17693090438842773,-0.00019175052436715134,0.012756542305638163,0.008041504539558986,-0.0,-0.0
0.1788485050201416,0.00019175052436715134,0.059754329747462975,-0.00025940337224383825,-0.0,-0.0
0.18077516555786133,-0.00019175052436715134,0.04632639047837017,-0.00025940337224383825,-0.0,-0.0
0.18266820907592773,-0.00019175052436715134,0.062439917601281536,-0.0023346303501945442,-0.0,-0.0
0.18465781211853027,0.00019175052436715134,0.018127718013275285,-0.08119325551232137,-0.0,-0.0
0.1866927146911621,0.00019175052436715134,0.015442130159456724,-0.05888456549935128,-0.0,-0.0
0.18863940238952637,0.00019175052436715134,0.04498359655146089,-0.02671854734111534,-0.0,-0.0
0.19052600860595703,-0.00019175052436715134,-0.04229800869764233,-0.09208819714656258,-0.0,-0.0
0.19244623184204102,0.00019175052436715134,0.10540932326237851,-0.15745784695200982,-0.0,-0.0
0.1943526268005371,0.00019175052436715134,0.03424124513618665,-0.0562905317769129,-0.0,-0.0
0.19625520706176758,0.0005752515730996777,0.03155565728236809,-0.052658884565499164,-0.0,-0.0
0.19809556007385254,0.00019175052436715134,-0.0651255054551001,-0.00025940337224383825,-0.0,-0.0
0.20001912117004395,0.00019175052436715134,0.003356984817273201,-0.00025940337224383825,-0.0,-0.0
0.20187902450561523,0.00019175052436715134,-0.03558403906309593,-0.1382619974059658,-0.0,-0.0
0.2037813663482666,0.00019175052436715134,0.03424124513618665,-0.04435797665369634,-0.0,-0.0
0.20574331283569336,0.0005752515730996777,-0.028870069428549527,-0.00025940337224383825,-0.0,-0.0
0.20766520500183105,0.0005752515730996777,0.053040360112916574,-0.09935149156939005,-0.0,-0.0
0.20957708358764648,0.0005752515730996777,0.062439917601281536,-0.007003891050583633,-0.0,-0.0
0.21149539947509766,0.00019175052436715134,-0.030212863355458808,-0.00025940337224383825,-0.0,-0.0
0.21343493461608887,0.00019175052436715134,0.0006713969634546402,-0.20363164721141302,-0.0,-0.0
0.21538829803466797,0.00019175052436715134,-0.003356984817273201,-0.03709468223086887,-0.0,-0.0
0.2174375057220459,0.00019175052436715134,0.015442130159456724,-0.17924773022049223,-0.0,-0.0
0.21941542625427246,0.00019175052436715134,-0.027527275501640247,-0.00025940337224383825,-0.0,-0.0
0.22137928009033203,0.00019175052436715134,-0.04364080262455161,-0.05006485084306078,-0.0,-0.0
0.22336697578430176,0.00019175052436715134,0.04364080262455161,-0.00025940337224383825,-0.0,-0.0
0.225264310836792,0.00019175052436715134,-0.022156099794003126,-0.0827496757457844,-0.0,-0.0
0.22727751731872559,0.00019175052436715134,-0.03289845120927737,-0.1579766536964975,-0.0,-0.0
0.22947192192077637,0.00019175052436715134,0.014099336232547444,-0.1465629053177686,-0.0,-0.0
0.2315506935119629,0.00019175052436715134,-0.0020141908903639205,-0.00025940337224383825,-0.0,-0.0
0.2335824966430664,0.00019175052436715134,0.010070954451819603,-0.00025940337224383825,-0.0,-0.0
0.23552894592285156,0.00019175052436715134,0.004699778744182481,-0.00025940337224383825,-0.0,-0.0
0.237501859664917,0.00019175052436715134,0.06646829938200938,-0.10298313878080378,-0.0,-0.0
0.23948979377746582,0.00019175052436715134,-0.04901197833218873,-0.0983138780804147,-0.0,-0.0
0.2415022850036621,0.00019175052436715134,-0.04766918440527945,-0.017380025940337163,-0.0,-0.0
0.24349546432495117,0.00019175052436715134,0.03289845120927737,-0.10765239948119287,-0.0,-0.0
0.24549508094787598,0.00019175052436715134,0.019470511940184565,-0.12996108949416296,-0.0,-0.0
0.24749493598937988,0.00019175052436715134,0.03155565728236809,-0.00025940337224383825,-0.0,-0.0
0.2494955062866211,0.00019175052436715134,-0.003356984817273201,-0.08430609597924743,-0.0,-0.0
0.25150132179260254,0.00019175052436715134,-0.0060425726710917615,-0.00025940337224383825,-0.0,-0.0
0.2535238265991211,0.00019175052436715134,-0.016784924086366004,-0.07133592736705552,-0.0,-0.0
0.2555837631225586,0.00019175052436715134,-0.016784924086366004,-0.00025940337224383825,-0.0,-0.0
0.25750255584716797,-0.00019175052436715134,-0.07989623865110218,-0.11750972762645873,-0.0,-0.0
0.2594480514526367,0.00019175052436715134,-0.04766918440527945,-0.00025940337224383825,-0.0,-0.0
0.26142454147338867,0.00019175052436715134,0.06378271152819082,-0.00025940337224383825,-0.0,-0.0
0.2634315490722656,-0.00019175052436715134,-0.015442130159456724,-0.00025940337224383825,-0.0,-0.0
0.2653481960296631,-0.00019175052436715134,0.053040360112916574,-0.0894941634241242,-0.0,-0.0
0.2672536373138428,-0.00019175052436715134,-0.012756542305638163,-0.00025940337224383825,-0.0,-0.0
0.2691822052001953,-0.00019175052436715134,-0.04364080262455161,-0.00025940337224383825,-0.0,-0.0
0.2712280750274658,-0.00019175052436715134,0.0020141908903639205,-0.09935149156939005,-0.0,-0.0
0.27327704429626465,-0.00019175052436715134,-0.10138094148165067,-0.00025940337224383825,-0.0,-0.0
0.2753434181213379,-0.00019175052436715134,0.05035477225909801,-0.00025940337224383825,-0.0,-0.0
0.27735447883605957,-0.00019175052436715134,0.0020141908903639205,-0.166796368352788,-0.0,-0.0
0.27917909622192383,-0.00019175052436715134,-0.030212863355458808,0.10661478599221752,-0.0,-0.0
0.2810990810394287,-0.00019175052436715134,-0.028870069428549527,-0.00025940337224383825,-0.0,-0.0
0.2830319404602051,-0.00019175052436715134,0.04901197833218873,-0.00025940337224383825,-0.0,-0.0
0.2850215435028076,-0.00019175052436715134,0.014099336232547444,0.1647211413748373,-0.0,-0.0
0.28695201873779297,-0.0005752515730996777,-0.06915388723582794,0.03086900129701675,-0.0,-0.0
0.28885459899902344,-0.0005752515730996777,-0.007385366598001042,-0.04435797665369634,-0.0,-0.0
0.2907590866088867,-0.0005752515730996777,-0.03155565728236809,-0.00025940337224383825,-0.0,-0.0
0.2927262783050537,-0.0005752515730996777,0.022156099794003126,0.0012970168612191912,-0.0,-0.0
0.2947220802307129,-0.0005752515730996777,0.04498359655146089,-0.00025940337224383825,-0.0,-0.0
0.29660606384277344,-0.0005752515730996777,-0.12018005645838059,-0.00025940337224383825,-0.0,-0.0
0.2985053062438965,-0.00019175052436715134,0.0919813839932857,-0.00025940337224383825,-0.0,-0.0
0.30049753189086914,-0.00019175052436715134,0.05169756618600729,-0.00025940337224383825,-0.0,-0.0
0.30242323875427246,-0.00019175052436715134,0.011413748378728883,-0.00025940337224383825,-0.0,-0.0
0.3043334484100342,-0.0005752515730996777,-0.04766918440527945,0.015304798962386457,-0.0,-0.0
0.30625295639038086,-0.0005752515730996777,-0.0006713969634546402,0.05214007782101149,-0.0,-0.0
0.30813050270080566,-0.0005752515730996777,0.04229800869764233,-0.12425421530479852,-0.0,-0.0
0.3100266456604004,-0.00019175052436715134,-0.04766918440527945,0.017380025940337163,-0.0,-0.0
0.3119528293609619,-0.0005752515730996777,0.055725947966735134,-0.00025940337224383825,-0.0,-0.0
0.31398797035217285,-0.0005752515730996777,0.06781109330891866,-0.03450064850843049,-0.0,-0.0
0.3160717487335205,-0.0005752515730996777,-0.06378271152819082,-0.00025940337224383825,-0.0,-0.0
0.31815171241760254,-0.00019175052436715134,0.04766918440527945,-0.00025940337224383825,-0.0,-0.0
0.32022786140441895,-0.0005752515730996777,-0.019470511940184565,-0.035019455252918164,-0.0,-0.0
0.3221309185028076,-0.00019175052436715134,0.0006713969634546402,-0.00025940337224383825,-0.0,-0.0
0.32404613494873047,-0.0005752515730996777,0.04632639047837017,-0.00025940337224383825,-0.0,-0.0
0.32601499557495117,-0.0005752515730996777,0.010070954451819603,0.022568093385213928,-0.0,-0.0
0.32795143127441406,-0.00019175052436715134,0.04766918440527945,-0.00025940337224383825,-0.0,-0.0
0.3299217224121094,-0.00019175052436715134,0.03826962691691449,-0.00025940337224383825,-0.0,-0.0
0.3318312168121338,-0.00019175052436715134,0.024841687647821686,-0.00025940337224383825,-0.0,-0.0
0.3337528705596924,-0.00019175052436715134,0.03424124513618665,-0.00025940337224383825,-0.0,-0.0
0.33564090728759766,-0.00019175052436715134,0.03558403906309593,-0.01478599221789878,-0.0,-0.0
0.3375515937805176,-0.00019175052436715134,0.03558403906309593,0.07808041504539531,-0.0,-0.0
0.3395674228668213,-0.00019175052436715134,0.004699778744182481,-0.00025940337224383825,-0.0,-0.0
0.34168028831481934,-0.00019175052436715134,0.0006713969634546402,-0.00025940337224383825,-0.0,-0.0
0.3436415195465088,-0.00019175052436715134,-0.020813305867093845,-0.11128404669260661,-0.0,-0.0
0.3455312252044678,-0.00019175052436715134,0.012756542305638163,-0.00025940337224383825,-0.0,-0.0
0.34743666648864746,-0.00019175052436715134,-0.020813305867093845,-0.00025940337224383825,-0.0,-0.0
0.34941720962524414,-0.00019175052436715134,-0.058411535820553695,-0.00025940337224383825,-0.0,-0.0
0.35135912895202637,-0.00019175052436715134,0.04901197833218873,-0.00025940337224383825,-0.0,-0.0
0.3532443046569824,0.00019175052436715134,-0.03155565728236809,-0.00025940337224383825,-0.0,-0.0
0.3550989627838135,-0.00019175052436715134,-0.04498359655146089,-0.00025940337224383825,-0.0,-0.0
0.35709643363952637,-0.00019175052436715134,-0.07452506294346506,-0.007003891050583633,-0.0,-0.0
0.35909509658813477,-0.00019175052436715134,0.03424124513618665,-0.2415045395590134,-0.0,-0.0
0.36107850074768066,-0.00019175052436715134,0.058411535820553695,-0.00025940337224383825,-0.0,-0.0
0.36318159103393555,-0.00019175052436715134,-0.003356984817273201,-0.00025940337224383825,-0.0,-0.0
0.3651313781738281,-0.00019175052436715134,0.03558403906309593,-0.00025940337224383825,-0.0,-0.0
0.3670482635498047,-0.00019175052436715134,-0.03558403906309593,-0.1533073929961084,-0.0,-0.0
0.36899542808532715,-0.00019175052436715134,-0.011413748378728883,-0.00025940337224383825,-0.0,-0.0
0.3708810806274414,-0.00019175052436715134,-0.03155565728236809,-0.00025940337224383825,-0.0,-0.0
0.37277960777282715,-0.00019175052436715134,0.015442130159456724,-0.00025940337224383825,-0.0,-0.0
0.37467360496520996,-0.00019175052436715134,-0.007385366598001042,-0.00025940337224383825,-0.0,-0.0
0.37661170959472656,0.00019175052436715134,0.023498893720912406,0.05888456549935128,-0.0,-0.0
0.37865614891052246,-0.00019175052436715134,-0.003356984817273201,-0.035019455252918164,-0.0,-0.0
0.3807058334350586,-0.00019175052436715134,-0.008728160524910322,-0.00025940337224383825,-0.0,-0.0
0.38274574279785156,0.00019175052436715134,0.0651255054551001,-0.00025940337224383825,-0.0,-0.0
0.3847472667694092,-0.00019175052436715134,-0.03424124513618665,-0.11076523994811893,-0.0,-0.0
0.3867180347442627,-0.00019175052436715134,-0.003356984817273201,-0.00025940337224383825,-0.0,-0.0
0.3886079788208008,-0.00019175052436715134,0.016784924086366004,-0.00025940337224383825,-0.0,-0.0
0.39060044288635254,-0.00019175052436715134,-0.014099336232547444,-0.00025940337224383825,-0.0,-0.0
0.39255690574645996,-0.00019175052436715134,0.019470511940184565,-0.00025940337224383825,-0.0,-0.0
0.3945119380950928,-0.00019175052436715134,-0.16852063782711468,-0.00025940337224383825,-0.0,-0.0
0.39642977714538574,-0.00019175052436715134,-0.061097123674372256,-0.00025940337224383825,-0.0,-0.0
0.39835405349731445,-0.00019175052436715134,-0.003356984817273201,-0.08638132295719814,-0.0,-0.0
0.4004995822906494,-0.00019175052436715134,-0.03155565728236809,-0.005447470817120603,-0.0,-0.0
0.40261149406433105,0.00019175052436715134,0.06781109330891866,-0.00025940337224383825,-0.0,-0.0
0.40463781356811523,-0.00019175052436715134,0.014099336232547444,-0.00025940337224383825,-0.0,-0.0
0.40666675567626953,-0.00019175052436715134,-0.0020141908903639205,-0.00025940337224383825,-0.0,-0.0
