time,position,velocity,torque,position_ref,velocity_ref
7.152557373046875e-07,0.061168417272917,0.023498893720912406,-0.00025940337224383825,0.0,0.0
0.0021059513092041016,0.060784916224182695,-0.34845502403295825,-1.9302204928664075,0.0,0.0
0.004090547561645508,0.05925091202925081,-0.6478980697337278,-1.9447470817120625,0.0,0.0
0.006012439727783203,0.05771690783431893,-0.7405508506904752,-2.4941634241245136,0.0,0.0
0.008075714111328125,0.056566404688119576,-0.7244373235675639,-2.9974059662775616,0.0,0.0
0.010021686553955078,0.055032400493187694,-0.7848630502784815,-3.299870298313877,0.0,0.0
0.012002944946289062,0.053114895249523286,-1.0292515449759705,-2.8101167315175086,0.0,0.0
0.014042854309082031,0.05004688685965952,-1.2682688639658224,-2.279377431906614,0.0,0.0
0.016091108322143555,0.047362379518528286,-1.3703212024109277,-2.2046692607003884,0.0,0.0
0.018110990524291992,0.04391087007993022,-1.70199130235752,-1.9546044098573283,0.0,0.0
0.020097970962524414,0.04045936064133393,-1.793301289387351,-1.6287937743190657,0.0,0.0
0.022017955780029297,0.037007851202735864,-1.9718928816662853,-1.295201037613488,0.0,0.0
0.023947715759277344,0.032789339666672745,-2.0215762569619287,-0.9221789883268485,0.0,0.0
0.02595806121826172,0.028570828130609627,-1.9906919966430152,-0.5543450064850859,0.0,0.0
0.027845144271850586,0.024735817643279034,-2.133028152895399,-0.32970168612192197,0.0,0.0
0.029715299606323242,0.02090080715595022,-2.100801098649576,-0.0739299610894939,0.0,0.0
0.03157687187194824,0.017065796668619626,-2.0578316929884792,-0.00025940337224383825,0.0,0.0
0.03350424766540527,0.013230786181289034,-1.922209506370642,-0.00025940337224383825,0.0,0.0
0.035637855529785156,0.009012274645225915,-1.894010833905547,0.16368352788586193,0.0,0.0
0.0375828742980957,0.005560765206629625,-1.7301899748226148,0.5579766536964996,0.0,0.0
0.03960251808166504,0.0024927568167640857,-1.659021896696423,0.6565499351491582,0.0,0.0
0.041579246520996094,0.0005752515730996777,-1.1769588769359913,0.6638132295719856,0.0,0.0
0.04353141784667969,-0.0013422536705647303,-0.8358892195010341,0.6083009079118042,0.0,0.0
0.04544186592102051,-0.0032597589142309147,-1.0775921263447046,0.9813229571984436,0.0,0.0
0.047369956970214844,-0.005560765206629625,-1.1890440222781749,1.5857328145265868,0.0,0.0
0.04917097091674805,-0.007478270450294033,-1.2145571068894512,1.7740596627756169,0.0,0.0
0.051085710525512695,-0.009012274645225915,-0.6438696879529999,1.474708171206224,0.0,0.0
0.05303764343261719,-0.009395775693958441,-0.40216678110932946,1.1654993514915688,0.0,0.0
0.05492210388183594,-0.01016277779142527,-0.42499427786678723,1.1047989623865107,0.0,0.0
0.056873321533203125,-0.01016277779142527,-0.11078049897001563,1.016083009079118,0.0,0.0
0.05893993377685547,-0.01016277779142527,0.1873197528038446,0.9190661478599225,0.0,0.0
0.06092524528503418,-0.009779276742692744,0.20477607385366525,0.6695201037613501,0.0,0.0
0.06307625770568848,-0.009012274645225915,0.4760204470893399,0.449027237354084,0.0,0.0
0.06501531600952148,-0.00786177149902656,0.42365148393987795,0.30064850843060853,0.0,0.0
0.06694746017456055,-0.006711268352827204,0.5122758831158905,-0.00025940337224383825,0.0,0.0
0.06884646415710449,-0.005944266255362152,0.5283894102388018,-0.00025940337224383825,0.0,0.0
0.07074189186096191,-0.005177264157895323,0.5001907377737069,-0.00025940337224383825,0.0,0.0
0.07264375686645508,-0.00441026206043027,0.3457694361791397,-0.00025940337224383825,0.0,0.0
0.07453131675720215,-0.003643259962963441,0.2920576791027685,-0.00025940337224383825,0.0,0.0
0.07644057273864746,-0.003643259962963441,0.0020141908903639205,-0.00025940337224383825,0.0,0.0
0.07858037948608398,-0.0032597589142309147,0.08392462043183002,0.05525291828793755,0.0,0.0
0.0806112289428711,-0.0028762578654983884,0.04498359655146089,-0.00025940337224383825,0.0,0.0
0.08274483680725098,-0.0024927568167640857,0.18329137102311677,0.09260700389105025,0.0,0.0
0.0848088264465332,-0.0028762578654983884,0.07318226901655578,-0.00025940337224383825,0.0,0.0
0.0867149829864502,-0.0024927568167640857,0.194033722438391,0.14967574578469467,0.0,0.0
0.08858489990234375,-0.0021092557680315593,0.11883726253147131,0.166796368352788,0.0,0.0
0.0904998779296875,-0.0021092557680315593,0.27460135805294783,0.04332036316472099,0.0,0.0
0.09237360954284668,-0.0021092557680315593,-0.04229800869764233,-0.00025940337224383825,0.0,0.0
0.09439349174499512,-0.0021092557680315593,0.13897917143511052,0.10609597924772984,0.0,0.0
0.09629392623901367,-0.0021092557680315593,-0.010070954451819603,0.14760051880674396,0.0,0.0
0.09817266464233398,-0.001725754719299033,0.062439917601281536,0.11024643320363126,0.0,0.0
0.10012316703796387,-0.001725754719299033,0.17523460746166108,0.1247730220492862,0.0,0.0
0.10220026969909668,-0.001725754719299033,0.13092240787365483,0.09675745784695167,0.0,0.0
0.10412740707397461,-0.001725754719299033,-0.19269092851148173,-0.00025940337224383825,0.0,0.0
0.10616850852966309,-0.001725754719299033,-0.04498359655146089,0.03398184176394281,0.0,0.0
0.1080467700958252,-0.001725754719299033,-0.0060425726710917615,0.2285343709468215,0.0,0.0
0.11001014709472656,-0.0021092557680315593,-0.03961242084382377,0.39766536964980403,0.0,0.0
0.11202096939086914,-0.0021092557680315593,-0.11480888075074347,0.5060959792477284,0.0,0.0
0.11401081085205078,-0.0024927568167640857,-0.24774547951476222,0.5616083009079134,0.0,0.0
0.11592960357666016,-0.0028762578654983884,-0.07721065079728362,0.5237354085603094,0.0,0.0
0.11785125732421875,-0.0032597589142309147,-0.05035477225909801,0.47859922178988157,0.0,0.0
0.11974906921386719,-0.0028762578654983884,0.05169756618600729,0.3738002594033709,0.0,0.0
0.12169098854064941,-0.0028762578654983884,0.027527275501640247,0.4090791180285329,0.0,0.0
0.12363839149475098,-0.0028762578654983884,-0.09332417792019498,0.33333333333333215,0.0,0.0
0.125732421875,-0.0028762578654983884,0.0919813839932857,0.3172503242542142,0.0,0.0
0.12779998779296875,-0.0024927568167640857,0.15106431677729404,0.0630350194552527,0.0,0.0
0.12966275215148926,-0.0021092557680315593,0.11749446860456203,-0.00025940337224383825,0.0,0.0
0.13153386116027832,-0.0021092557680315593,0.012756542305638163,0.1553826199740591,0.0,0.0
0.13349676132202148,-0.0021092557680315593,0.028870069428549527,-0.00025940337224383825,0.0,0.0
0.13543987274169922,-0.001725754719299033,-0.03289845120927737,-0.00025940337224383825,0.0,0.0
0.13743901252746582,-0.001725754719299033,-0.08661020828564858,-0.00025940337224383825,0.0,0.0
0.13927173614501953,-0.0013422536705647303,-0.015442130159456724,-0.00025940337224383825,0.0,0.0
0.14116907119750977,-0.001725754719299033,-0.023498893720912406,0.21608300907911726,0.0,0.0
0.14332056045532227,-0.001725754719299033,0.21014724956130237,0.1003891050583654,0.0,0.0
0.14534568786621094,-0.001725754719299033,-0.06378271152819082,-0.00025940337224383825,0.0,0.0
0.14747881889343262,-0.001725754719299033,0.08795300221255786,0.15278858625162073,0.0,0.0
0.14958572387695312,-0.0013422536705647303,0.1403219653620198,-0.00025940337224383825,0.0,0.0
0.15149927139282227,-0.000958752621832204,0.1537499046311126,-0.00025940337224383825,0.0,0.0
0.1534276008605957,-0.0005752515730996777,0.2020904859998467,-0.0718547341115432,0.0,0.0
0.15537667274475098,-0.0005752515730996777,0.09600976577401354,-0.00025940337224383825,0.0,0.0
0.157273530960083,-0.00019175052436715134,0.054383154039825854,-0.00025940337224383825,0.0,0.0
0.15917587280273438,-0.0005752515730996777,-0.11212329289692491,-0.00025940337224383825,0.0,0.0
0.16109514236450195,-0.00019175052436715134,0.126894026092927,-0.04487678339818402,0.0,0.0
0.1630992889404297,-0.00019175052436715134,0.08123903257801146,-0.00025940337224383825,0.0,0.0
0.1651592254638672,-0.00019175052436715134,0.13092240787365483,-0.00025940337224383825,0.0,0.0
0.16718339920043945,-0.00019175052436715134,0.03692683299000521,-0.00025940337224383825,0.0,0.0
0.16922450065612793,-0.0005752515730996777,0.06646829938200938,-0.00025940337224383825,0.0,0.0
0.17127060890197754,-0.0005752515730996777,-0.09735255970092282,-0.00025940337224383825,0.0,0.0
0.1731252670288086,-0.0005752515730996777,-0.12420843823910843,-0.00025940337224383825,0.0,0.0
0.17501401901245117,-0.0005752515730996777,-0.07452506294346506,-0.00025940337224383825,0.0,0.0
0.17693090438842773,-0.0005752515730996777,-0.0020141908903639205,-0.00025940337224383825,0.0,0.0
0.1788485050201416,-0.0005752515730996777,0.03558403906309593,-0.00025940337224383825,0.0,0.0
0.18077516555786133,-0.0005752515730996777,-0.015442130159456724,-0.00025940337224383825,0.0,0.0
0.18266820907592773,-0.0005752515730996777,0.0020141908903639205,-0.00025940337224383825,0.0,0.0
0.18465781211853027,-0.0005752515730996777,-0.04498359655146089,-0.00025940337224383825,0.0,0.0
0.1866927146911621,-0.0005752515730996777,0.022156099794003126,-0.00025940337224383825,0.0,0.0
0.18863940238952637,-0.00019175052436715134,-0.03961242084382377,-0.00025940337224383825,0.0,0.0
0.19052600860595703,-0.00019175052436715134,-0.053040360112916574,-0.017380025940337163,0.0,0.0
0.19244623184204102,-0.00019175052436715134,-0.11346608682383419,-0.00025940337224383825,0.0,0.0
0.1943526268005371,-0.00019175052436715134,0.09063859006637642,-0.00025940337224383825,0.0,0.0
0.19625520706176758,-0.00019175052436715134,-0.03155565728236809,-0.09364461738002561,0.0,0.0
0.19809556007385254,-0.00019175052436715134,-0.023498893720912406,-0.00025940337224383825,0.0,0.0
0.20001912117004395,0.00019175052436715134,0.0919813839932857,-0.00025940337224383825,0.0,0.0
0.20187902450561523,0.00019175052436715134,0.059754329747462975,-0.07289234760051855,0.0,0.0
0.2037813663482666,0.00019175052436715134,0.014099336232547444,-0.021530479896238575,0.0,0.0
0.20574331283569336,0.00019175052436715134,-0.016784924086366004,-0.07548638132295693,0.0,0.0
0.20766520500183105,0.00019175052436715134,-0.03289845120927737,-0.00025940337224383825,0.0,0.0
0.20957708358764648,0.00019175052436715134,-0.05169756618600729,-0.03968871595330725,0.0,0.0
0.21149539947509766,0.00019175052436715134,-0.05035477225909801,-0.07911802853437067,0.0,0.0
0.21343493461608887,0.00019175052436715134,-0.18329137102311677,-0.00025940337224383825,0.0,0.0
0.21538829803466797,0.00019175052436715134,-0.011413748378728883,-0.00025940337224383825,0.0,0.0
0.2174375057220459,0.00019175052436715134,-0.058411535820553695,-0.00025940337224383825,0.0,0.0
0.21941542625427246,0.00019175052436715134,-0.011413748378728883,-0.00025940337224383825,0.0,0.0
0.22137928009033203,0.00019175052436715134,0.10272373540855995,-0.00025940337224383825,0.0,0.0
0.22336697578430176,0.00019175052436715134,-0.0718394750896465,-0.00025940337224383825,0.0,0.0
0.225264310836792,0.00019175052436715134,-0.1255512321660177,-0.00025940337224383825,0.0,0.0
0.22727751731872559,-0.00019175052436715134,0.04632639047837017,-0.00025940337224383825,0.0,0.0
0.22947192192077637,0.00019175052436715134,0.07318226901655578,-0.00025940337224383825,0.0,0.0
0.2315506935119629,0.00019175052436715134,0.14837872892347548,-0.00025940337224383825,0.0,0.0
0.2335824966430664,-0.00019175052436715134,0.03692683299000521,-0.00025940337224383825,0.0,0.0
0.23552894592285156,-0.00019175052436715134,-0.061097123674372256,-0.00025940337224383825,0.0,0.0
0.237501859664917,-0.00019175052436715134,0.04364080262455161,-0.00025940337224383825,0.0,0.0
0.23948979377746582,0.00019175052436715134,0.03826962691691449,-0.00025940337224383825,0.0,0.0
0.2415022850036621,-0.00019175052436715134,-0.06646829938200938,-0.00025940337224383825,0.0,0.0
0.24349546432495117,0.00019175052436715134,0.10943770504310635,-0.00025940337224383825,0.0,0.0
0.24549508094787598,0.00019175052436715134,-0.0986953536278321,-0.00025940337224383825,0.0,0.0
0.24749493598937988,-0.00019175052436715134,-0.04632639047837017,-0.00025940337224383825,0.0,0.0
0.2494955062866211,-0.00019175052436715134,-0.0060425726710917615,-0.00025940337224383825,0.0,0.0
0.25150132179260254,-0.00019175052436715134,-0.08661020828564858,-0.00025940337224383825,0.0,0.0
0.2535238265991211,-0.00019175052436715134,0.0651255054551001,-0.00025940337224383825,0.0,0.0
0.2555837631225586,-0.00019175052436715134,0.024841687647821686,-0.00025940337224383825,0.0,0.0
0.25750255584716797,-0.00019175052436715134,-0.04364080262455161,-0.00025940337224383825,0.0,0.0
0.2594480514526367,-0.00019175052436715134,0.03961242084382377,-0.00025940337224383825,0.0,0.0
0.26142454147338867,-0.00019175052436715134,-0.06646829938200938,-0.00025940337224383825,0.0,0.0
0.2634315490722656,-0.0005752515730996777,-0.15509269855802188,-0.00025940337224383825,0.0,0.0
0.2653481960296631,-0.0005752515730996777,-0.09735255970092282,-0.00025940337224383825,0.0,0.0
0.2672536373138428,-0.0005752515730996777,-0.07452506294346506,-0.00025940337224383825,0.0,0.0
0.2691822052001953,-0.0005752515730996777,-0.10003814755474139,-0.00025940337224383825,0.0,0.0
0.2712280750274658,-0.0005752515730996777,-0.003356984817273201,0.009597924773022015,0.0,0.0
0.27327704429626465,-0.0005752515730996777,-0.06781109330891866,-0.00025940337224383825,0.0,0.0
0.2753434181213379,-0.0005752515730996777,-0.06646829938200938,0.08638132295719814,0.0,0.0
0.27735447883605957,-0.0005752515730996777,-0.08929579613946714,-0.00025940337224383825,0.0,0.0
0.27917909622192383,-0.0005752515730996777,-0.11749446860456203,-0.00025940337224383825,0.0,0.0
0.2810990810394287,-0.000958752621832204,-0.1403219653620198,-0.00025940337224383825,0.0,0.0
0.2830319404602051,-0.0005752515730996777,0.0006713969634546402,-0.00025940337224383825,0.0,0.0
0.2850215435028076,-0.0005752515730996777,0.04095521477073305,-0.00025940337224383825,0.0,0.0
0.28695201873779297,-0.000958752621832204,0.014099336232547444,0.0474708171206224,0.0,0.0
0.28885459899902344,-0.000958752621832204,-0.03961242084382377,0.009597924773022015,0.0,0.0
0.2907590866088867,-0.000958752621832204,-0.04364080262455161,0.06095979247730199,0.0,0.0
0.2927262783050537,-0.0005752515730996777,0.0919813839932857,-0.00025940337224383825,0.0,0.0
0.2947220802307129,-0.000958752621832204,-0.07989623865110218,-0.00025940337224383825,0.0,0.0
0.29660606384277344,-0.0005752515730996777,0.011413748378728883,0.03709468223086887,0.0,0.0
0.2985053062438965,-0.000958752621832204,-0.026184481574730967,0.0386511024643319,0.0,0.0
0.30049753189086914,-0.000958752621832204,0.030212863355458808,0.04332036316472099,0.0,0.0
0.30242323875427246,-0.000958752621832204,0.023498893720912406,-0.00025940337224383825,0.0,0.0
0.3043334484100342,-0.000958752621832204,-0.010070954451819603,-0.00025940337224383825,0.0,0.0
0.30625295639038086,-0.000958752621832204,-0.03826962691691449,0.1003891050583654,0.0,0.0
0.30813050270080566,-0.000958752621832204,0.2074616617074838,0.01322957198443575,0.0,0.0
0.3100266456604004,-0.000958752621832204,-0.0060425726710917615,-0.00025940337224383825,0.0,0.0
0.3119528293609619,-0.000958752621832204,0.019470511940184565,-0.00025940337224383825,0.0,0.0
0.31398797035217285,-0.000958752621832204,0.04364080262455161,0.04695201037613472,0.0,0.0
0.3160717487335205,-0.000958752621832204,0.003356984817273201,-0.00025940337224383825,0.0,0.0
0.31815171241760254,-0.000958752621832204,-0.06378271152819082,-0.00025940337224383825,0.0,0.0
0.32022786140441895,-0.000958752621832204,0.011413748378728883,-0.00025940337224383825,0.0,0.0
0.3221309185028076,-0.000958752621832204,-0.062439917601281536,-0.00025940337224383825,0.0,0.0
0.32404613494873047,-0.000958752621832204,-0.059754329747462975,-0.00025940337224383825,0.0,0.0
0.32601499557495117,-0.000958752621832204,-0.04229800869764233,-0.00025940337224383825,0.0,0.0
0.32795143127441406,-0.000958752621832204,0.07049668116273722,-0.00025940337224383825,0.0,0.0
0.3299217224121094,-0.0005752515730996777,-0.03289845120927737,-0.00025940337224383825,0.0,0.0
0.3318312168121338,-0.000958752621832204,-0.06378271152819082,0.010116731517509692,0.0,0.0
0.3337528705596924,-0.000958752621832204,-0.0718394750896465,0.07237354085603087,0.0,0.0
0.33564090728759766,-0.000958752621832204,0.058411535820553695,-0.00025940337224383825,0.0,0.0
0.3375515937805176,-0.0005752515730996777,0.16852063782711468,0.0007782101167315147,0.0,0.0
0.3395674228668213,-0.0005752515730996777,0.06915388723582794,-0.00025940337224383825,0.0,0.0
0.34168028831481934,-0.0005752515730996777,0.05169756618600729,-0.00025940337224383825,0.0,0.0
0.3436415195465088,-0.0005752515730996777,-0.011413748378728883,-0.00025940337224383825,0.0,0.0
0.3455312252044678,-0.00019175052436715134,-0.022156099794003126,-0.0915693904020749,0.0,0.0
0.34743666648864746,-0.00019175052436715134,-0.08258182650492074,-0.00025940337224383825,0.0,0.0
0.34941720962524414,0.00019175052436715134,0.17657740138857037,-0.00025940337224383825,0.0,0.0
0.35135912895202637,-0.00019175052436715134,-0.0785534447241929,-0.00025940337224383825,0.0,0.0
0.3532443046569824,-0.00019175052436715134,-0.12420843823910843,-0.00025940337224383825,0.0,0.0
0.3550989627838135,-0.00019175052436715134,-0.022156099794003126,-0.00025940337224383825,0.0,0.0
0.35709643363952637,-0.00019175052436715134,-0.016784924086366004,-0.00025940337224383825,0.0,0.0
0.35909509658813477,-0.0005752515730996777,-0.0785534447241929,-0.00025940337224383825,0.0,0.0
0.36107850074768066,-0.0005752515730996777,0.008728160524910322,-0.00025940337224383825,0.0,0.0
0.36318159103393555,-0.0005752515730996777,-0.07049668116273722,-0.00025940337224383825,0.0,0.0
0.3651313781738281,-0.0005752515730996777,-0.15912108033874972,-0.00025940337224383825,0.0,0.0
0.3670482635498047,-0.0005752515730996777,-0.07318226901655578,-0.00025940337224383825,0.0,0.0
0.36899542808532715,-0.0005752515730996777,-0.06646829938200938,-0.00025940337224383825,0.0,0.0
0.3708810806274414,-0.0005752515730996777,-0.014099336232547444,-0.00025940337224383825,0.0,0.0
0.37277960777282715,-0.0005752515730996777,0.059754329747462975,-0.00025940337224383825,0.0,0.0
0.37467360496520996,-0.0005752515730996777,0.027527275501640247,-0.00025940337224383825,0.0,0.0
0.37661170959472656,-0.00019175052436715134,0.06781109330891866,-0.00025940337224383825,0.0,0.0
0.37865614891052246,-0.00019175052436715134,0.15106431677729404,-0.00025940337224383825,0.0,0.0
0.3807058334350586,-0.00019175052436715134,0.07318226901655578,-0.00025940337224383825,0.0,0.0
0.38274574279785156,-0.00019175052436715134,0.1886625467307539,-0.0671854734111541,0.0,0.0
0.3847472667694092,-0.00019175052436715134,0.03155565728236809,-0.00025940337224383825,0.0,0.0
0.3867180347442627,-0.00019175052436715134,-0.062439917601281536,-0.0012970168612191912,0.0,0.0
0.3886079788208008,-0.00019175052436715134,0.03692683299000521,-0.00025940337224383825,0.0,0.0
0.39060044288635254,-0.00019175052436715134,-0.07318226901655578,-0.00025940337224383825,0.0,0.0
0.39255690574645996,-0.00019175052436715134,-0.0986953536278321,-0.00025940337224383825,0.0,0.0
0.3945119380950928,-0.00019175052436715134,-0.11749446860456203,-0.00025940337224383825,0.0,0.0
0.39642977714538574,-0.00019175052436715134,0.1403219653620198,-0.00025940337224383825,0.0,0.0
0.39835405349731445,-0.00019175052436715134,-0.14837872892347548,-0.00025940337224383825,0.0,0.0
0.4004995822906494,-0.00019175052436715134,-0.008728160524910322,-0.00025940337224383825,0.0,0.0
0.40261149406433105,-0.0005752515730996777,0.004699778744182481,-0.00025940337224383825,0.0,0.0
0.40463781356811523,-0.0005752515730996777,0.15643549248493116,-0.00025940337224383825,0.0,0.0
0.40666675567626953,-0.0005752515730996777,-0.04766918440527945,-0.00025940337224383825,0.0,0.0
0.40853023529052734,-0.0005752515730996777,0.0785534447241929,-0.00025940337224383825,0.0,0.0
0.41042065620422363,-0.0005752515730996777,-0.10406652933546923,-0.00025940337224383825,0.0,0.0
0.41237664222717285,-0.0005752515730996777,-0.10809491111619707,-0.00025940337224383825,0.0,0.0
0.4142727851867676,-0.0005752515730996777,0.016784924086366004,-0.00025940337224383825,0.0,0.0
0.4161801338195801,-0.0005752515730996777,0.09735255970092282,-0.00025940337224383825,0.0,0.0
