time,position,velocity,torque,position_ref,velocity_ref
1.1920928955078125e-06,0.03547384700780398,-0.09735255970092282,0.03709468223086887,-0.0,-0.0
0.0025463104248046875,0.035090345959071456,-0.25177386129549006,-0.6939040207522709,-0.0,-0.0
0.005217790603637695,0.033556341764139574,-0.6908674753948318,-0.5776913099870313,-0.0,-0.0
0.008103132247924805,0.030488333374274035,-1.0091096360723313,-0.4962386511024661,-0.0,-0.0
0.011129140853881836,0.02588632078947839,-1.530113679713132,-0.3992217898832706,-0.0,-0.0
0.014284372329711914,0.02090080715595022,-1.5838254367895033,0.05317769130998684,-0.0,-0.0
0.01747441291809082,0.016298794571152797,-1.4307469291218453,0.4780804150453939,-0.0,-0.0
0.020276784896850586,0.012847285132556507,-1.0399938963912447,0.3680933852140065,-0.0,-0.0
0.02350616455078125,0.010546278840157797,-0.6425268940260906,0.03294422827496746,-0.0,-0.0
0.026532649993896484,0.008628773596493389,-0.5592736705577153,0.03138780804150443,-0.0,-0.0
0.02963709831237793,0.007478270450294033,-0.649240863660637,-0.12166018158236014,-0.0,-0.0
0.03258705139160156,0.006327767304094678,-0.3242847333485912,-0.1906614785992211,-0.0,-0.0
0.03567647933959961,0.005177264157895323,-0.2826581216144035,-0.20363164721141302,-0.0,-0.0
0.03864860534667969,0.00441026206043027,-0.15240711070420332,-0.3286640726329466,-0.0,-0.0
0.041744232177734375,0.003643259962963441,-0.25177386129549006,-0.24306095979247644,-0.0,-0.0
0.04482436180114746,0.0032597589142309147,-0.12957961394674555,-0.3888456549935171,-0.0,-0.0
0.04790353775024414,0.0028762578654983884,-0.10943770504310635,-0.27470817120622826,-0.0,-0.0
0.050939321517944336,0.0024927568167640857,-0.08123903257801146,-0.2285343709468215,-0.0,-0.0
0.054038047790527344,0.0021092557680315593,-0.23028915846494158,-0.27730220492866664,-0.0,-0.0
0.05707907676696777,0.001725754719299033,0.018127718013275285,-0.3110246433203656,-0.0,-0.0
0.05990147590637207,0.0013422536705647303,-0.20611886778057453,-0.20466926070038838,-0.0,-0.0
0.0628659725189209,0.0013422536705647303,-0.0060425726710917615,-0.22075226977950635,-0.0,-0.0
0.0659937858581543,0.000958752621832204,-0.0986953536278321,-0.28560311284046946,-0.0,-0.0
0.0689084529876709,0.000958752621832204,-0.007385366598001042,-0.29079118028534623,-0.0,-0.0
0.07166194915771484,0.000958752621832204,0.023498893720912406,-0.3089494163424149,-0.0,-0.0
0.07468843460083008,0.0005752515730996777,-0.08392462043183002,-0.17613488975356617,-0.0,-0.0
0.07769632339477539,0.0005752515730996777,-0.022156099794003126,-0.1994811932555116,-0.0,-0.0
0.08074116706848145,0.0005752515730996777,0.016784924086366004,-0.2695201037613515,-0.0,-0.0
0.08371257781982422,0.0005752515730996777,0.04095521477073305,-0.09623865110246399,-0.0,-0.0
0.08660054206848145,0.0005752515730996777,0.057068741893644415,-0.2523994811932546,-0.0,-0.0
0.0897221565246582,0.0005752515730996777,-0.05035477225909801,-0.2715953307393022,-0.0,-0.0
0.09250307083129883,0.00019175052436715134,-0.06646829938200938,-0.27522697795071593,-0.0,-0.0
0.09557771682739258,0.0005752515730996777,0.0785534447241929,-0.16575875486381264,-0.0,-0.0
0.09852457046508789,0.0005752515730996777,0.04766918440527945,-0.219714656290531,-0.0,-0.0
0.10099363327026367,0.00019175052436715134,-0.0986953536278321,-0.1865110246433197,-0.0,-0.0
0.10406899452209473,0.00019175052436715134,0.03826962691691449,-0.17821011673151688,-0.0,-0.0
0.10674500465393066,0.00019175052436715134,0.015442130159456724,-0.23164721141374756,-0.0,-0.0
0.10988283157348633,0.00019175052436715134,-0.12018005645838059,-0.11543450064850802,-0.0,-0.0
0.11244773864746094,0.00019175052436715134,-0.024841687647821686,-0.22490272373540776,-0.0,-0.0
0.115570068359375,0.0005752515730996777,0.08258182650492074,-0.33696498054474944,-0.0,-0.0
0.11870265007019043,0.00019175052436715134,-0.08795300221255786,-0.20518806744487605,-0.0,-0.0
0.12140250205993652,0.00019175052436715134,-0.07452506294346506,-0.11854734111543408,-0.0,-0.0
0.12400579452514648,0.00019175052436715134,0.08661020828564858,-0.26848249027237614,-0.0,-0.0
0.12696003913879395,0.00019175052436715134,0.04766918440527945,-0.3001297016861244,-0.0,-0.0
0.1298048496246338,0.00019175052436715134,-0.05035477225909801,-0.2171206225680926,-0.0,-0.0
0.13290190696716309,0.00019175052436715134,-0.010070954451819603,-0.21400778210116655,-0.0,-0.0
0.1360177993774414,0.00019175052436715134,0.03961242084382377,-0.17872892347600455,-0.0,-0.0
0.13883280754089355,0.00019175052436715134,-0.061097123674372256,-0.21141374837872817,-0.0,-0.0
0.14195823669433594,0.00019175052436715134,-0.16314946211947756,-0.3177691309987054,-0.0,-0.0
0.14508986473083496,0.00019175052436715134,0.08929579613946714,-0.24202334630350109,-0.0,-0.0
0.14818406105041504,0.00019175052436715134,0.12823682001983627,-0.237354085603112,-0.0,-0.0
0.15073752403259277,0.00019175052436715134,-0.06915388723582794,-0.04435797665369634,-0.0,-0.0
0.1534419059753418,0.0005752515730996777,0.018127718013275285,-0.16264591439688658,-0.0,-0.0
0.15581822395324707,0.00019175052436715134,0.1255512321660177,-0.17665369649805385,-0.0,-0.0
0.1584928035736084,0.00019175052436715134,-0.13629358358129195,-0.2612191958495451,-0.0,-0.0
0.1612553596496582,0.0005752515730996777,0.04095521477073305,-0.24461738002593947,-0.0,-0.0
0.16391301155090332,0.00019175052436715134,0.07989623865110218,-0.11284046692606964,-0.0,-0.0
0.16708111763000488,0.00019175052436715134,-0.1671778439002054,-0.16523994811932496,-0.0,-0.0
0.1702728271484375,0.00019175052436715134,-0.018127718013275285,-0.23631647211413664,-0.0,-0.0
0.17326617240905762,0.00019175052436715134,-0.07989623865110218,-0.18287937743190597,-0.0,-0.0
0.17615842819213867,0.00019175052436715134,-0.05169756618600729,-0.2741893644617406,-0.0,-0.0
0.1792745590209961,0.00019175052436715134,-0.09332417792019498,-0.22490272373540776,-0.0,-0.0
0.18189167976379395,0.00019175052436715134,-0.018127718013275285,-0.2954604409857353,-0.0,-0.0
0.18490290641784668,0.0005752515730996777,0.04632639047837017,-0.17872892347600455,-0.0,-0.0
0.18842768669128418,0.00019175052436715134,-0.04229800869764233,-0.2757457846952036,-0.0,-0.0
0.19182634353637695,0.00019175052436715134,0.054383154039825854,-0.1994811932555116,-0.0,-0.0
0.19483280181884766,0.00019175052436715134,-0.027527275501640247,-0.3644617380025963,-0.0,-0.0
0.1972332000732422,0.0005752515730996777,-0.0006713969634546402,-0.11543450064850802,-0.0,-0.0
0.19938278198242188,0.0005752515730996777,0.024841687647821686,-0.27315175097276523,-0.0,-0.0
0.20146799087524414,0.00019175052436715134,0.03558403906309593,-0.14760051880674396,-0.0,-0.0
0.20351839065551758,0.00019175052436715134,-0.10809491111619707,-0.24513618677042714,-0.0,-0.0
0.20561909675598145,0.00019175052436715134,-0.17254901960784252,-0.2508430609597916,-0.0,-0.0
0.2077176570892334,0.00019175052436715134,0.020813305867093845,-0.27885862516212967,-0.0,-0.0
0.2105109691619873,0.00019175052436715134,0.062439917601281536,-0.2643320363164712,-0.0,-0.0
0.21332526206970215,0.00019175052436715134,-0.008728160524910322,-0.1553826199740591,-0.0,-0.0
0.21611666679382324,0.0005752515730996777,-0.03692683299000521,-0.36134889753567023,-0.0,-0.0
0.2189476490020752,0.00019175052436715134,0.026184481574730967,-0.15071335927367002,-0.0,-0.0
0.22175025939941406,0.0005752515730996777,0.016784924086366004,-0.19584954604409788,-0.0,-0.0
0.22461915016174316,0.0005752515730996777,-0.08123903257801146,-0.20051880674448697,-0.0,-0.0
0.22736144065856934,0.00019175052436715134,0.059754329747462975,-0.3468223086900153,-0.0,-0.0
0.2301187515258789,0.00019175052436715134,0.008728160524910322,-0.2217898832684817,-0.0,-0.0
0.23294949531555176,0.00019175052436715134,-0.027527275501640247,-0.13670557717250276,-0.0,-0.0
0.23569369316101074,0.0005752515730996777,0.07721065079728362,-0.2394293125810627,-0.0,-0.0
0.23851704597473145,0.00019175052436715134,-0.0006713969634546402,-0.12321660181582317,-0.0,-0.0
0.24140238761901855,0.0005752515730996777,0.09332417792019498,-0.19273670557717182,-0.0,-0.0
0.24427437782287598,0.00019175052436715134,0.10943770504310635,-0.23372243839169826,-0.0,-0.0
0.24694609642028809,0.0005752515730996777,0.0852674143587393,-0.21867704280155564,-0.0,-0.0
0.24933648109436035,0.0005752515730996777,0.10675211718928779,-0.1709468223086894,-0.0,-0.0
0.25212788581848145,0.00019175052436715134,0.08123903257801146,-0.2933852140077846,-0.0,-0.0
0.2549121379852295,0.00019175052436715134,0.0020141908903639205,-0.23839169909208735,-0.0,-0.0
0.2574336528778076,0.00019175052436715134,-0.12823682001983627,-0.08586251621271046,-0.0,-0.0
0.26058149337768555,0.00019175052436715134,0.03692683299000521,-0.22127107652399403,-0.0,-0.0
0.26362085342407227,0.00019175052436715134,0.04229800869764233,-0.24773022049286553,-0.0,-0.0
0.26656317710876465,0.00019175052436715134,-0.03826962691691449,-0.3333333333333357,-0.0,-0.0
0.26921844482421875,0.00019175052436715134,-0.016784924086366004,-0.22594033722438311,-0.0,-0.0
0.2721140384674072,0.0005752515730996777,0.0006713969634546402,-0.15953307392996052,-0.0,-0.0
0.2749967575073242,0.00019175052436715134,-0.11346608682383419,-0.28197146562905573,-0.0,-0.0
0.278064489364624,0.0005752515730996777,-0.008728160524910322,-0.15953307392996052,-0.0,-0.0
0.28174543380737305,0.0005752515730996777,0.19940489814602813,-0.313618677042804,-0.0,-0.0
0.28524327278137207,0.00019175052436715134,-0.003356984817273201,-0.237354085603112,-0.0,-0.0
0.289417028427124,0.0005752515730996777,0.030212863355458808,-0.20466926070038838,-0.0,-0.0
0.2942311763763428,0.00019175052436715134,-0.023498893720912406,-0.2555123216601807,-0.0,-0.0
0.29790735244750977,0.00019175052436715134,0.07049668116273722,-0.2150453955901419,-0.0,-0.0
0.301145076751709,0.00019175052436715134,-0.003356984817273201,-0.2721141374837899,-0.0,-0.0
0.30369067192077637,0.00019175052436715134,-0.022156099794003126,-0.12788586251621226,-0.0,-0.0
0.30819225311279297,0.00019175052436715134,-0.08123903257801146,-0.14500648508430558,-0.0,-0.0
0.3124568462371826,0.00019175052436715134,-0.04364080262455161,-0.13878080415045346,-0.0,-0.0
0.3171989917755127,0.00019175052436715134,0.020813305867093845,-0.24357976653696412,-0.0,-0.0
0.3209066390991211,0.00019175052436715134,-0.05035477225909801,-0.22438391699092008,-0.0,-0.0
0.3242015838623047,0.00019175052436715134,-0.10003814755474139,-0.3073929961089519,-0.0,-0.0
0.3271462917327881,0.0005752515730996777,0.06378271152819082,-0.279896238651105,-0.0,-0.0
0.33103060722351074,0.00019175052436715134,0.0006713969634546402,-0.17457846952010314,-0.0,-0.0
0.33557701110839844,0.00019175052436715134,0.03961242084382377,-0.26225680933852047,-0.0,-0.0
0.34038758277893066,0.00019175052436715134,-0.12286564431219915,-0.313618677042804,-0.0,-0.0
0.34504055976867676,0.0005752515730996777,0.23297474631876014,-0.23683527885862432,-0.0,-0.0
0.3496675491333008,0.00019175052436715134,0.03558403906309593,-0.2762645914396913,-0.0,-0.0
0.35463881492614746,0.00019175052436715134,-0.014099336232547444,-0.15901426718547285,-0.0,-0.0
0.35854458808898926,0.0005752515730996777,0.058411535820553695,-0.10972762645914358,-0.0,-0.0
0.362992525100708,0.0005752515730996777,0.026184481574730967,-0.22127107652399403,-0.0,-0.0
0.3681151866912842,0.0005752515730996777,-0.026184481574730967,-0.17924773022049223,-0.0,-0.0
0.37239956855773926,0.00019175052436715134,-0.014099336232547444,-0.19584954604409788,-0.0,-0.0
0.37700533866882324,0.00019175052436715134,0.07721065079728362,-0.3110246433203656,-0.0,-0.0
0.3800499439239502,0.00019175052436715134,-0.07049668116273722,-0.24357976653696412,-0.0,-0.0
0.3843882083892822,0.00019175052436715134,-0.024841687647821686,-0.08326848249027208,-0.0,-0.0
0.389298677444458,0.00019175052436715134,0.022156099794003126,-0.1382619974059658,-0.0,-0.0
0.3940005302429199,0.00019175052436715134,-0.10943770504310635,-0.2440985732814518,-0.0,-0.0
0.3975844383239746,0.0005752515730996777,0.026184481574730967,-0.1906614785992211,-0.0,-0.0
0.40153074264526367,0.00019175052436715134,0.10272373540855995,-0.19429312581063485,-0.0,-0.0
0.40601348876953125,0.00019175052436715134,-0.08661020828564858,-0.21660181582360494,-0.0,-0.0
0.4107520580291748,0.00019175052436715134,0.018127718013275285,-0.21556420233462958,-0.0,-0.0
0.41454005241394043,0.00019175052436715134,0.0852674143587393,-0.14396887159533023,-0.0,-0.0
0.41953468322753906,0.00019175052436715134,-0.11883726253147131,-0.21452658884565423,-0.0,-0.0
0.4234497547149658,0.00019175052436715134,0.026184481574730967,-0.31932555123216844,-0.0,-0.0
0.42694616317749023,0.00019175052436715134,-0.0006713969634546402,-0.0894941634241242,-0.0,-0.0
0.43102288246154785,0.0005752515730996777,0.10675211718928779,-0.37431906614786215,-0.0,-0.0
0.43503427505493164,0.00019175052436715134,-0.05035477225909801,-0.2529182879377423,-0.0,-0.0
0.43994879722595215,0.0005752515730996777,0.16986343175402396,-0.22957198443579685,-0.0,-0.0
0.44374513626098633,0.0005752515730996777,0.08258182650492074,-0.31206225680934097,-0.0,-0.0
0.44837188720703125,0.00019175052436715134,-0.027527275501640247,-0.3063553826199765,-0.0,-0.0
0.45266294479370117,0.00019175052436715134,-0.03558403906309593,-0.17457846952010314,-0.0,-0.0
0.4565131664276123,0.00019175052436715134,-0.012756542305638163,-0.29961089494163673,-0.0,-0.0
0.4611079692840576,0.00019175052436715134,-0.11078049897001563,-0.16627756160830032,-0.0,-0.0
0.46549010276794434,0.0005752515730996777,0.10272373540855995,-0.16264591439688658,-0.0,-0.0
0.4686126708984375,0.0005752515730996777,0.03826962691691449,-0.21660181582360494,-0.0,-0.0
0.472247838973999,0.00019175052436715134,0.022156099794003126,-0.27522697795071593,-0.0,-0.0
0.47637319564819336,0.00019175052436715134,-0.09600976577401354,-0.2088197146562898,-0.0,-0.0
0.48114633560180664,0.0005752515730996777,-0.04364080262455161,-0.3535667963683551,-0.0,-0.0
0.48605847358703613,0.0005752515730996777,-0.03424124513618665,-0.26070038910505744,-0.0,-0.0
0.489849328994751,0.00019175052436715134,-0.09466697184710426,-0.23216601815823523,-0.0,-0.0
0.49424219131469727,0.00019175052436715134,0.07586785687037434,-0.29494163424124764,-0.0,-0.0
0.4987599849700928,0.00019175052436715134,-0.06646829938200938,-0.3022049286640751,-0.0,-0.0
0.5018167495727539,0.0005752515730996777,0.1336079957274734,-0.2508430609597916,-0.0,-0.0
0.5043301582336426,0.00019175052436715134,-0.15240711070420332,-0.16731517509727567,-0.0,-0.0
0.5073285102844238,0.0005752515730996777,0.18329137102311677,-0.2394293125810627,-0.0,-0.0
0.5101380348205566,0.00019175052436715134,-0.12420843823910843,-0.1797665369649799,-0.0,-0.0
0.5129191875457764,0.0005752515730996777,0.03692683299000521,-0.2171206225680926,-0.0,-0.0
0.5159714221954346,0.00019175052436715134,0.05169756618600729,-0.3094682230869026,-0.0,-0.0
0.5190637111663818,0.00019175052436715134,0.014099336232547444,-0.33229571984436035,-0.0,-0.0
0.5230123996734619,0.00019175052436715134,-0.05169756618600729,-0.3265888456549959,-0.0,-0.0
0.5264103412628174,0.0005752515730996777,0.010070954451819603,-0.22749675745784614,-0.0,-0.0
0.5304248332977295,0.0005752515730996777,0.014099336232547444,-0.3846952010376157,-0.0,-0.0
0.5353951454162598,0.0005752515730996777,0.024841687647821686,-0.3639429312581086,-0.0,-0.0
0.5399026870727539,0.00019175052436715134,-0.04766918440527945,-0.2638132295719835,-0.0,-0.0
0.5433938503265381,0.00019175052436715134,-0.028870069428549527,-0.03450064850843049,-0.0,-0.0
0.5483813285827637,0.00019175052436715134,-0.008728160524910322,-0.10609597924772984,-0.0,-0.0
0.5533990859985352,0.00019175052436715134,0.057068741893644415,-0.14552529182879326,-0.0,-0.0
0.5575239658355713,0.00019175052436715134,-0.0060425726710917615,-0.31725032425421773,-0.0,-0.0
0.5615417957305908,0.0005752515730996777,0.0651255054551001,-0.25343709468222997,-0.0,-0.0
0.5658371448516846,0.00019175052436715134,-0.010070954451819603,-0.2762645914396913,-0.0,-0.0
0.5693919658660889,0.00019175052436715134,-0.019470511940184565,-0.31206225680934097,-0.0,-0.0
0.5725042819976807,0.00019175052436715134,0.057068741893644415,-0.2062256809338514,-0.0,-0.0
0.5753040313720703,0.00019175052436715134,-0.15106431677729404,-0.13981841763942882,-0.0,-0.0
0.5781052112579346,0.00019175052436715134,-0.018127718013275285,-0.2461738002594025,-0.0,-0.0
0.5809669494628906,0.00019175052436715134,-0.07452506294346506,-0.26848249027237614,-0.0,-0.0
0.5834028720855713,0.00019175052436715134,0.11346608682383419,-0.10972762645914358,-0.0,-0.0
0.5862042903900146,0.00019175052436715134,-0.026184481574730967,-0.17509727626459082,-0.0,-0.0
0.5890200138092041,0.00019175052436715134,-0.06781109330891866,-0.2617380025940328,-0.0,-0.0
0.5919554233551025,0.00019175052436715134,0.07586785687037434,-0.17146562905317708,-0.0,-0.0
0.594890832901001,0.00019175052436715134,0.0919813839932857,-0.21400778210116655,-0.0,-0.0
0.5976510047912598,0.00019175052436715134,0.04364080262455161,-0.19896238651102394,-0.0,-0.0
0.600299596786499,0.00019175052436715134,-0.13092240787365483,-0.15382619974059608,-0.0,-0.0
0.602759599685669,0.00019175052436715134,0.0006713969634546402,-0.2523994811932546,-0.0,-0.0
0.606536865234375,0.00019175052436715134,-0.04498359655146089,-0.26277561608300815,-0.0,-0.0
0.6094348430633545,0.00019175052436715134,0.19134813458457245,-0.23164721141374756,-0.0,-0.0
0.6123204231262207,0.00019175052436715134,0.08795300221255786,-0.12996108949416296,-0.0,-0.0
0.6154155731201172,0.0005752515730996777,0.053040360112916574,-0.32970168612192197,-0.0,-0.0
0.6184663772583008,0.00019175052436715134,-0.019470511940184565,-0.2394293125810627,-0.0,-0.0
0.6215839385986328,0.0005752515730996777,0.1819485770962075,-0.29027237354085855,-0.0,-0.0
0.6243081092834473,0.00019175052436715134,0.06915388723582794,-0.25343709468222997,-0.0,-0.0
0.6272172927856445,0.00019175052436715134,0.1336079957274734,-0.20155642023346232,-0.0,-0.0
0.6303977966308594,0.00019175052436715134,0.008728160524910322,-0.278339818417642,-0.0,-0.0
0.6342401504516602,0.00019175052436715134,-0.06781109330891866,-0.23839169909208735,-0.0,-0.0
0.6390659809112549,0.00019175052436715134,-0.016784924086366004,-0.31206225680934097,-0.0,-0.0
0.6428079605102539,0.00019175052436715134,-0.12152285038528987,-0.22542153047989544,-0.0,-0.0
0.6464180946350098,0.00019175052436715134,0.05035477225909801,-0.27522697795071593,-0.0,-0.0
0.6512889862060547,0.00019175052436715134,-0.004699778744182481,-0.15434500648508376,-0.0,-0.0
0.6556646823883057,0.00019175052436715134,0.04364080262455161,-0.15175097276264538,-0.0,-0.0
0.6587138175964355,0.00019175052436715134,0.06378271152819082,-0.1559014267185468,-0.0,-0.0
0.6621439456939697,0.00019175052436715134,0.03692683299000521,-0.1533073929961084,-0.0,-0.0
0.6652395725250244,0.00019175052436715134,0.04364080262455161,-0.20778210116731444,-0.0,-0.0
0.6685023307800293,0.00019175052436715134,0.055725947966735134,-0.15642023346303446,-0.0,-0.0
0.6725020408630371,0.00019175052436715134,0.0020141908903639205,-0.2690012970168638,-0.0,-0.0
0.6753358840942383,0.00019175052436715134,-0.027527275501640247,-0.09883268482490237,-0.0,-0.0
0.6777124404907227,0.00019175052436715134,0.14569314106965692,-0.15071335927367002,-0.0,-0.0
0.6802332401275635,0.00019175052436715134,0.1738918135347518,-0.23994811932555038,-0.0,-0.0
0.6831245422363281,0.00019175052436715134,0.003356984817273201,-0.2674448767834008,-0.0,-0.0
0.6855661869049072,0.00019175052436715134,-0.026184481574730967,-0.0671854734111541,-0.0,-0.0
0.6881513595581055,0.00019175052436715134,-0.2007476920729374,-0.14811932555123164,-0.0,-0.0
0.6913511753082275,0.00019175052436715134,0.2088044556343931,-0.10557717250324217,-0.0,-0.0
0.6940484046936035,0.00019175052436715134,0.08392462043183002,-0.10090791180285308,-0.0,-0.0
0.6964986324310303,0.00019175052436715134,-0.03826962691691449,-0.07029831387808017,-0.0,-0.0
0.6986360549926758,0.00019175052436715134,0.07586785687037434,-0.16368352788586193,-0.0,-0.0
0.7027485370635986,0.00019175052436715134,0.08661020828564858,-0.07289234760051855,-0.0,-0.0
