time,position,velocity,torque,position_ref,velocity_ref
1.430511474609375e-06,-0.05848390993178576,-0.01617456321049815,0.23895628290226512,0.0,0.0
0.003388643264770508,-0.055032400493187694,1.8350499732967087,5.03273060196841,0.0,0.0
0.006426334381103516,-0.048512882664725865,2.1206988632028683,1.6946669718470986,0.0,0.0
0.009345531463623047,-0.04160986378753151,2.2714579995422284,0.9732204165712943,0.0,0.0
0.012238740921020508,-0.035090345959071456,2.0938429846646827,1.2918287937743145,0.0,0.0
0.015384912490844727,-0.028954329179342153,1.8655680170901014,2.117647058823536,0.0,0.0
0.018368959426879883,-0.02358531449707968,1.548180361638817,2.3172350652323246,0.0,0.0
0.02114415168762207,-0.01936680296101656,1.1880674448767827,2.6028839551384806,0.0,0.0
0.024229049682617188,-0.016298794571152797,1.1569390402075221,3.4506752117189308,0.0,0.0
0.027228832244873047,-0.01361428723002156,0.6973373006790275,3.8681620508125434,0.0,0.0
0.030368804931640625,-0.011696781986357152,0.369573510337986,4.439459830624855,0.0,0.0
0.03308510780334473,-0.01016277779142527,0.6961165789272918,5.030899519340807,0.0,0.0
0.0361332893371582,-0.009012274645225915,0.47943846799419987,4.1995880064087885,0.0,0.0
0.039202213287353516,-0.00786177149902656,0.34760051880674325,3.6795605401693763,0.0,0.0
0.04219365119934082,-0.007094769401561507,0.4361028458075822,3.461661707484552,0.0,0.0
0.044971466064453125,-0.006711268352827204,0.18036163881895106,3.4140535591668595,0.0,0.0
0.04795980453491211,-0.006327767304094678,0.07904173342488718,3.6868848706797905,0.0,0.0
0.05085635185241699,-0.005944266255362152,0.12115663385976916,3.0057221332112647,0.0,0.0
0.0536041259765625,-0.005560765206629625,0.06561379415579438,2.6871137560082445,0.0,0.0
0.05638003349304199,-0.005177264157895323,0.08514534218356573,2.760357061112387,0.0,0.0
0.05945897102355957,-0.00441026206043027,0.02288853284504455,2.2549782558938034,0.0,0.0
0.06220126152038574,-0.00441026206043027,0.17914091706721536,2.2458228427557856,0.0,0.0
0.06476926803588867,-0.003643259962963441,0.18158236057068677,1.7495994506752055,0.0,0.0
0.06772923469543457,-0.0032597589142309147,0.14679179064621906,1.8338292515449695,0.0,0.0
0.07072162628173828,-0.0028762578654983884,0.1461814297703512,1.247882810711829,0.0,0.0
0.0734717845916748,-0.0028762578654983884,0.06683451590753009,1.3211261158159715,0.0,0.0
0.0762794017791748,-0.0021092557680315593,0.019836728465705278,0.9823758297093121,0.0,0.0
0.07909011840820312,-0.0021092557680315593,0.09002822919050857,0.7003891050583633,0.0,0.0
0.08197903633117676,-0.001725754719299033,0.03692683299000521,0.5941863126573566,0.0,0.0
0.08504247665405273,-0.0013422536705647303,0.08514534218356573,0.5246051728084211,0.0,0.0
0.08779478073120117,-0.0005752515730996777,0.33539330128938616,0.37994964522773955,0.0,0.0
0.08995914459228516,-0.0005752515730996777,0.19012741283283674,0.21515220874341878,0.0,0.0
0.09217262268066406,-0.00019175052436715134,0.03692683299000521,0.09063859006637642,0.0,0.0
0.09420466423034668,0.00019175052436715134,0.1919584954604403,-0.14923323414969047,0.0,0.0
0.09666323661804199,0.0005752515730996777,0.17364766918440466,-0.002746623941405346,0.0,0.0
0.09936857223510742,0.000958752621832204,-0.006408789196612474,-0.14190890363927622,0.0,0.0
0.10201168060302734,0.000958752621832204,0.00030518043793392735,-0.20782787823300453,0.0,0.0
0.10430288314819336,0.0013422536705647303,0.1528953994048976,-0.3323414969100469,0.0,0.0
0.10651636123657227,0.0013422536705647303,0.306706340123597,-0.3836118104829467,0.0,0.0
0.10935163497924805,0.001725754719299033,-0.04852368963149445,-0.5813687342641316,0.0,0.0
0.11198806762695312,0.0021092557680315593,0.1138323033493549,-0.7132066834515882,0.0,0.0
0.11436700820922852,0.0021092557680315593,0.15106431677729404,-0.9988555733577513,0.0,0.0
0.11638116836547852,0.0024927568167640857,0.14129854276340836,-1.029983978027012,0.0,0.0
0.11881566047668457,0.0024927568167640857,0.07660028992141577,-1.1911192492561256,0.0,0.0
0.12154865264892578,0.0028762578654983884,-0.03692683299000521,-1.374227512016482,0.0,0.0
0.12433791160583496,0.0028762578654983884,0.17914091706721536,-1.3284504463263929,0.0,0.0
0.12682580947875977,0.0028762578654983884,0.01617456321049815,-1.315632867933168,0.0,0.0
0.12889862060546875,0.0028762578654983884,-0.020447089341573133,-1.659876401922638,0.0,0.0
0.13163495063781738,0.0028762578654983884,0.10833905546654421,-1.659876401922638,0.0,0.0
0.1344449520111084,0.0028762578654983884,0.03448538948653379,-1.991302357518883,0.0,0.0
0.13714957237243652,0.0028762578654983884,0.12481879911497629,-1.8246738384069587,0.0,0.0
0.13962721824645996,0.0028762578654983884,0.04119935912108019,-2.0645456626230256,0.0,0.0
0.14202499389648438,0.0028762578654983884,0.037537193865873064,-1.7459372854200055,0.0,0.0
0.14437007904052734,0.0028762578654983884,-0.07537956816968006,-1.9308766308079655,0.0,0.0
0.14684224128723145,0.0028762578654983884,-0.11993591210803345,-2.240329594872968,0.0,0.0
0.14961695671081543,0.0028762578654983884,-0.14557106889448335,-1.5994506752117204,0.0,0.0
0.15205883979797363,0.0024927568167640857,-0.24383916990920795,-2.4600595101853955,0.0,0.0
0.15468144416809082,0.0024927568167640857,-0.06988632028686936,-2.042572671091783,0.0,0.0
0.15721368789672852,0.0024927568167640857,0.00030518043793392735,-2.0151064316777294,0.0,0.0
0.15982651710510254,0.0024927568167640857,0.07965209430075504,-2.0480659189745936,0.0,0.0
0.16271281242370605,0.0024927568167640857,-0.005188067444876765,-2.17990386816205,0.0,0.0
0.16559886932373047,0.0024927568167640857,-0.01373311970702673,-1.8081940947585267,0.0,0.0
0.16810154914855957,0.0024927568167640857,-0.07598992904554791,-1.7843900205996803,0.0,0.0
0.17101407051086426,0.0024927568167640857,0.08941786831464071,-2.066376745250629,0.0,0.0
0.17389893531799316,0.0024927568167640857,0.07110704203860507,-1.8374914168001837,0.0,0.0
0.17663240432739258,0.0021092557680315593,-0.033875028610665936,-1.4474708171206245,0.0,0.0
0.17952585220336914,0.0021092557680315593,0.03448538948653379,-1.3266193636987893,0.0,0.0
0.18216156959533691,0.0021092557680315593,0.058289463645380124,-1.3760585946440855,0.0,0.0
0.1849226951599121,0.001725754719299033,-0.04730296787975874,-1.1526665140764507,0.0,0.0
0.18767309188842773,0.001725754719299033,-0.10894941634241206,-0.9878690775921299,0.0,0.0
0.19022631645202637,0.001725754719299033,0.1919584954604403,-1.2259098191805933,0.0,0.0
0.19300055503845215,0.0013422536705647303,-0.11749446860456203,-1.3980315861753283,0.0,0.0
0.19591665267944336,0.0013422536705647303,-0.10162508583199781,-1.0061799038681656,0.0,0.0
0.19869494438171387,0.000958752621832204,-0.1327534905012584,-0.8743419546807019,0.0,0.0
0.20157337188720703,0.000958752621832204,0.06927595941100151,-0.7406729228656417,0.0,0.0
0.2046058177947998,0.0005752515730996777,-0.2175936522468902,-0.7699702449072987,0.0,0.0
0.2072312831878662,0.0005752515730996777,-0.10101472495612995,-0.6308079652094278,0.0,0.0
0.20993924140930176,0.0005752515730996777,-0.0680552376592658,-0.6363012130922385,0.0,0.0
0.21259093284606934,0.00019175052436715134,-0.013122758831158876,-0.7846189059281272,0.0,0.0
0.2150101661682129,0.00019175052436715134,-0.030212863355458808,-0.6179903868162029,0.0,0.0
0.21768903732299805,0.00019175052436715134,0.12787060349431556,-0.47699702449072845,0.0,0.0
0.22015094757080078,0.00019175052436715134,0.21698329137102235,-0.5593957427328888,0.0,0.0
0.22278571128845215,-0.00019175052436715134,-0.03204394598306237,-0.5117875944151962,0.0,0.0
0.22581887245178223,-0.00019175052436715134,-0.10894941634241206,-0.5300984206912318,0.0,0.0
0.22876715660095215,-0.00019175052436715134,0.12787060349431556,-0.5172808422980069,0.0,0.0
0.2316727638244629,-0.00019175052436715134,-0.10467689021133708,-0.5978484779125637,0.0,0.0
0.23452258110046387,-0.00019175052436715134,-0.11017013809414777,-0.40558480201418945,0.0,0.0
0.23715639114379883,-0.00019175052436715134,-0.04852368963149445,-0.4129091325246037,0.0,0.0
0.24019193649291992,-0.00019175052436715134,-0.13092240787365483,-0.3836118104829467,0.0,0.0
0.2426929473876953,-0.00019175052436715134,-0.07965209430075504,-0.4385442893110536,0.0,0.0
0.24570035934448242,-0.00019175052436715134,0.03204394598306237,-0.4019226367589823,0.0,0.0
0.24865508079528809,-0.00019175052436715134,0.018005645838101714,-0.2792401007095435,0.0,0.0
0.25098681449890137,-0.00019175052436715134,0.02410925459678026,-0.3836118104829467,0.0,0.0
0.2540159225463867,-0.00019175052436715134,-0.10833905546654421,-0.3726253147173253,0.0,0.0
0.2566795349121094,-0.00019175052436715134,0.06195162890058725,-0.3305104142824433,0.0,0.0
0.25926661491394043,-0.00019175052436715134,-0.01739528496223386,-0.2243076218814366,0.0,0.0
0.261883020401001,-0.00019175052436715134,0.22919050888837944,-0.3012130922407863,0.0,0.0
0.2643871307373047,-0.00019175052436715134,0.03997863736934448,-0.264591439688715,0.0,0.0
0.26697659492492676,-0.00019175052436715134,-0.15533684290836902,-0.3121995880064077,0.0,0.0
0.26968979835510254,-0.00019175052436715134,-0.07721065079728362,-0.40009155413137876,0.0,0.0
0.2725410461425781,-0.00019175052436715134,-0.24505989166094366,-0.4348821240558465,0.0,0.0
0.2755746841430664,-0.00019175052436715134,-0.007629510948348184,-0.29938200961318273,0.0,0.0
0.27799224853515625,-0.00019175052436715134,0.02288853284504455,-0.37079423208972173,0.0,0.0
0.2807636260986328,-0.00019175052436715134,0.07782101167315147,-0.2609292744335079,0.0,0.0
0.28358006477355957,-0.00019175052436715134,0.12970168612191912,-0.2865644312199578,0.0,0.0
0.28629255294799805,-0.00019175052436715134,-0.02655069810025168,-0.2902265964751649,0.0,0.0
0.2888960838317871,-0.00019175052436715134,-0.07660028992141577,-0.29938200961318273,0.0,0.0
0.2916085720062256,-0.00019175052436715134,0.04119935912108019,-0.3891050583657574,0.0,0.0
0.29426145553588867,0.00019175052436715134,0.03997863736934448,-0.3634699015793075,0.0,0.0
0.2969353199005127,0.00019175052436715134,0.23163195239185086,-0.2902265964751649,0.0,0.0
0.2996952533721924,0.00019175052436715134,0.28595407034408993,-0.26276035706111145,0.0,0.0
0.3023254871368408,0.00019175052436715134,-0.05767910276951227,-0.4019226367589823,0.0,0.0
0.3046560287475586,0.00019175052436715134,0.04730296787975874,-0.3616388189517039,0.0,0.0
0.3066434860229492,0.00019175052436715134,-0.006408789196612474,-0.44586861982146786,0.0,0.0
0.30869483947753906,0.00019175052436715134,-0.09735255970092282,-0.44037537193865717,0.0,0.0
0.3109409809112549,0.0005752515730996777,0.01373311970702673,-0.46234836346989994,0.0,0.0
0.3136942386627197,0.0005752515730996777,0.06622415503166224,-0.3982604715037752,0.0,0.0
0.31632351875305176,0.0005752515730996777,-0.07660028992141577,-0.4605172808422964,0.0,0.0
0.3188626766204834,0.0005752515730996777,-0.12542915999084414,-0.46601052872510706,0.0,0.0
0.32117319107055664,0.000958752621832204,0.08453498130769788,-0.5282673380636282,0.0,0.0
0.3248562812805176,0.000958752621832204,0.14312962539101193,-0.6070038910505815,0.0,0.0
0.32845473289489746,0.0005752515730996777,-0.03692683299000521,-0.6564431219958777,0.0,0.0
0.33095765113830566,0.000958752621832204,0.027161058976119534,-0.5960173952849601,0.0,0.0
0.33411598205566406,0.000958752621832204,0.10223544670786566,-0.722362096589606,0.0,0.0
0.3382296562194824,0.000958752621832204,0.037537193865873064,-0.9860379949645264,0.0,0.0
0.3412191867828369,0.000958752621832204,0.02777141985198739,-0.7864499885557308,0.0,0.0
0.34351038932800293,0.0013422536705647303,-0.16937514305332968,-0.9329365987640159,0.0,0.0
0.3473649024963379,0.0013422536705647303,0.09124895094224428,-0.793774319066145,0.0,0.0
0.35057735443115234,0.0013422536705647303,0.1516746776531619,-1.1252002746623972,0.0,0.0
0.3530385494232178,0.0013422536705647303,-0.07782101167315147,-0.9567406729228694,0.0,0.0
0.3558783531188965,0.0013422536705647303,0.06195162890058725,-1.0080109864957691,0.0,0.0
0.3584609031677246,0.0013422536705647303,0.0039673456931410556,-1.0611123826962725,0.0,0.0
0.3613448143005371,0.0013422536705647303,0.2041657129777974,-0.9658960860608872,0.0,0.0
0.3641786575317383,0.0013422536705647303,-0.04852368963149445,-0.9311055161364123,0.0,0.0
0.36742067337036133,0.0013422536705647303,0.054627298390172996,-1.000686655985355,0.0,0.0
0.37111783027648926,0.0013422536705647303,0.09552147707331926,-1.2588693064774574,0.0,0.0
0.37436866760253906,0.0013422536705647303,0.0949111161974514,-1.231403067063404,0.0,0.0
0.37703609466552734,0.001725754719299033,0.12848096437018341,-1.2845044632639073,0.0,0.0
0.380784273147583,0.001725754719299033,0.08331425955596217,-1.1508354314488471,0.0,0.0
0.38492655754089355,0.0013422536705647303,-0.22796978713664373,-1.51705195696956,0.0,0.0
0.38762760162353516,0.001725754719299033,-0.03204394598306237,-1.2643625543602681,0.0,0.0
0.39052248001098633,0.001725754719299033,0.18158236057068677,-1.4218356603341746,0.0,0.0
0.3926525115966797,0.001725754719299033,-0.10467689021133708,-1.4785992217898851,0.0,0.0
0.39564061164855957,0.001725754719299033,0.01495384145876244,-1.3833829251544998,0.0,0.0
0.39801812171936035,0.001725754719299033,-0.06744487678339794,-1.4145113298237604,0.0,0.0
0.4013502597808838,0.001725754719299033,0.0039673456931410556,-1.1197070267795866,0.0,0.0
0.40385866165161133,0.001725754719299033,-0.021667811093308842,-1.7093156328679342,0.0,0.0
0.4066181182861328,0.0013422536705647303,-0.07232776379034078,-1.1746395056076935,0.0,0.0
0.40875697135925293,0.001725754719299033,-0.06195162890058725,-1.403524834058139,0.0,0.0
0.4122147560119629,0.001725754719299033,-0.1138323033493549,-1.643396658274206,0.0,0.0
0.4154548645019531,0.001725754719299033,-0.018005645838101714,-1.218585488670179,0.0,0.0
0.4181404113769531,0.001725754719299033,0.14862287327382262,-1.1654840924696757,0.0,0.0
0.4203338623046875,0.001725754719299033,-0.08270389868009431,-1.7093156328679342,0.0,0.0
0.42413997650146484,0.001725754719299033,0.0680552376592658,-1.2680247196154752,0.0,0.0
0.42736148834228516,0.001725754719299033,-0.011902037079423167,-1.6488899061570166,0.0,0.0
0.4299802780151367,0.001725754719299033,0.1315327687495227,-1.4108491645685532,0.0,0.0
0.43305349349975586,0.001725754719299033,-0.049134050507362304,-1.277180132753493,0.0,0.0
0.4371981620788574,0.001725754719299033,0.16815442130159397,-1.445639734493021,0.0,0.0
0.44011664390563965,0.001725754719299033,0.231021591515983,-1.017166399633787,0.0,0.0
0.44251441955566406,0.001725754719299033,0.020447089341573133,-1.3138017853055644,0.0,0.0
0.44532132148742676,0.001725754719299033,-0.08270389868009431,-1.462119478141453,0.0,0.0
0.4491078853607178,0.001725754719299033,0.20050354772259027,-1.1966124971389362,0.0,0.0
0.4523885250091553,0.001725754719299033,-0.13214312962539054,-1.6031128404669275,0.0,0.0
0.4553561210632324,0.001725754719299033,0.1864652475776296,-1.1947814145113327,0.0,0.0
0.4582176208496094,0.001725754719299033,-0.13031204699778698,-1.86129549095903,0.0,0.0
0.460817813873291,0.001725754719299033,-0.02532997634851597,-1.5426871137560099,0.0,0.0
0.46329760551452637,0.001725754719299033,-0.013122758831158876,-1.3852140077821034,0.0,0.0
0.46585631370544434,0.001725754719299033,0.049134050507362304,-1.2991531242847358,0.0,0.0
0.4686248302459717,0.001725754719299033,-0.10955977721827992,-1.4859235523002994,0.0,0.0
0.4715156555175781,0.001725754719299033,0.22858014801251159,-1.3174639505607715,0.0,0.0
0.47474002838134766,0.001725754719299033,-0.0015259021896696368,-1.429159990844589,0.0,0.0
0.4784069061279297,0.001725754719299033,-0.06988632028686936,-1.8411535820553908,0.0,0.0
0.48132920265197754,0.001725754719299033,-0.019836728465705278,-1.7386129549095912,0.0,0.0
0.4838838577270508,0.0021092557680315593,0.12115663385976916,-1.8997482261387049,0.0,0.0
0.4858987331390381,0.0021092557680315593,0.15533684290836902,-1.4639505607690566,0.0,0.0
0.4886453151702881,0.0021092557680315593,-0.07354848554207649,-1.747768368047609,0.0,0.0
0.4915952682495117,0.0021092557680315593,-0.08453498130769788,-2.0700389105058363,0.0,0.0
0.49477553367614746,0.0021092557680315593,-0.06500343327992653,-2.04623483634699,0.0,0.0
0.4971473217010498,0.0021092557680315593,0.07171740291447293,-1.7752346074616625,0.0,0.0
0.5006041526794434,0.0021092557680315593,0.00030518043793392735,-1.8759441519798585,0.0,0.0
0.5032210350036621,0.0021092557680315593,0.09796292057679068,-1.958342870222019,0.0,0.0
0.5057790279388428,0.0021092557680315593,-0.17669947356374394,-1.8081940947585267,0.0,0.0
0.5089895725250244,0.0021092557680315593,-0.025940337224383825,-1.9143968871595334,0.0,0.0
0.5120553970336914,0.0024927568167640857,0.005188067444876765,-1.8594644083314265,0.0,0.0
0.5148723125457764,0.0024927568167640857,-0.014343480582894585,-2.146944380865186,0.0,0.0
0.517662763595581,0.0024927568167640857,0.00579842832074462,-2.273289082169832,0.0,0.0
0.5197875499725342,0.0024927568167640857,0.16083009079117971,-2.1908903639276716,0.0,0.0
0.5227625370025635,0.0024927568167640857,-0.17242694743266895,-2.352025635156785,0.0,0.0
0.5263915061950684,0.0024927568167640857,-0.0869764248111693,-2.3428702220187674,0.0,0.0
0.530184268951416,0.0024927568167640857,-0.08331425955596217,-1.9235523002975512,0.0,0.0
0.5339334011077881,0.0028762578654983884,0.0802624551766229,-2.2531471732661927,0.0,0.0
0.5373728275299072,0.0028762578654983884,0.18585488670176176,-2.2531471732661927,0.0,0.0
0.5409326553344727,0.0028762578654983884,0.053406576638437286,-2.1945525291828787,0.0,0.0
0.5445919036865234,0.0028762578654983884,-0.09002822919050857,-2.2128633554589143,0.0,0.0
0.5491633415222168,0.0028762578654983884,0.08941786831464071,-2.2549782558937963,0.0,0.0
0.5524294376373291,0.0028762578654983884,0.17914091706721536,-2.3172350652323175,0.0,0.0
0.5551927089691162,0.0028762578654983884,0.07965209430075504,-2.1872281986724644,0.0,0.0
0.5589101314544678,0.0028762578654983884,0.028381780727855244,-2.07186999313344,0.0,0.0
0.5630660057067871,0.0028762578654983884,-0.12237735561150487,-2.6486610208285626,0.0,0.0
0.5662000179290771,0.0028762578654983884,-0.126039520866712,-2.3556878004119923,0.0,0.0
0.5689682960510254,0.0028762578654983884,-0.16815442130159397,-2.3849851224536494,0.0,0.0
0.5713968276977539,0.0032597589142309147,0.22247653925383304,-2.9855802243076255,0.0,0.0
0.5736258029937744,0.0032597589142309147,0.03143358510719452,-2.478370336461431,0.0,0.0
0.5759642124176025,0.0032597589142309147,0.09857328145265853,-2.104829480430304,0.0,0.0
0.5787191390991211,0.0032597589142309147,-0.05401693751430514,-2.637674525062941,0.0,0.0
0.5812687873840332,0.0032597589142309147,0.03936827649347663,-2.2165255207141215,0.0,0.0
0.5840094089508057,0.0032597589142309147,0.09246967269397999,-2.2879377431906605,0.0,0.0
0.5867166519165039,0.0032597589142309147,-0.05767910276951227,-2.269626916914625,0.0,0.0
0.5893192291259766,0.0032597589142309147,-0.3274586099031076,-2.776836804760812,0.0,0.0
0.5917751789093018,0.0032597589142309147,-0.10894941634241206,-2.8885328450446366,0.0,0.0
0.594245195388794,0.0032597589142309147,-0.10101472495612995,-2.8940260929274473,0.0,0.0
0.5971407890319824,0.0032597589142309147,-0.0039673456931410556,-2.60105287251087,0.0,0.0
0.5999479293823242,0.003643259962963441,0.044251163500419466,-2.7493705653467586,0.0,0.0
0.6026866436004639,0.003643259962963441,-0.09857328145265853,-2.8848706797894295,0.0,0.0
0.6053686141967773,0.003643259962963441,0.003356984817273201,-3.091783016708632,0.0,0.0
0.6080303192138672,0.003643259962963441,0.1004043640802621,-3.3096818493934563,0.0,0.0
0.6106853485107422,0.003643259962963441,0.07354848554207649,-3.289539940489817,0.0,0.0
0.6129405498504639,0.003643259962963441,0.019226367589837423,-3.055161364156561,0.0,0.0
0.6157009601593018,0.003643259962963441,0.12115663385976916,-3.020370794232093,0.0,0.0
0.6184530258178711,0.004026761011695967,0.08758678568703715,-3.000228885328454,0.0,0.0
0.6207656860351562,0.004026761011695967,0.0680552376592658,-3.0020599679560576,0.0,0.0
0.6235692501068115,0.004026761011695967,-0.08758678568703715,-3.28587777523461,0.0,0.0
