time,position,velocity,torque,position_ref,velocity_ref
7.152557373046875e-07,-0.02090080715595022,0.22626077668421374,-0.029312581063553722,-0.0,-0.0
0.002785205841064453,-0.020517306107215916,0.23834592202639726,0.43035019455252765,-0.0,-0.0
0.005763530731201172,-0.019750304009750863,0.3121995880064077,0.18287937743190597,-0.0,-0.0
0.008540153503417969,-0.018599800863551508,0.481391622796977,0.06822308690012946,-0.0,-0.0
0.011470317840576172,-0.017449297717352152,0.49213397421225125,0.15175097276264538,-0.0,-0.0
0.014182567596435547,-0.015531792473687744,0.682810711833369,0.13878080415045346,-0.0,-0.0
0.017195701599121094,-0.014381289327488389,0.514961470969709,0.24306095979247644,-0.0,-0.0
0.020020484924316406,-0.012463784083822205,0.5901579308766287,0.16627756160830032,-0.0,-0.0
0.022834062576293945,-0.010929779888890323,0.5928435187304473,-0.014267185473411104,-0.0,-0.0
0.025589942932128906,-0.009779276742692744,0.6438696879529999,-0.008560311284046662,-0.0,-0.0
0.02817559242248535,-0.008628773596493389,0.5498741130693503,-0.04695201037613472,-0.0,-0.0
0.031226158142089844,-0.007094769401561507,0.5216754406042554,0.11284046692606964,-0.0,-0.0
0.03433537483215332,-0.006327767304094678,0.43036545357442435,0.24461738002593947,-0.0,-0.0
0.03711199760437012,-0.005177264157895323,0.34979781795986753,0.012191958495460398,-0.0,-0.0
0.03986191749572754,-0.004026761011695967,0.3256275272755005,0.11284046692606964,-0.0,-0.0
0.042446136474609375,-0.0032597589142309147,0.2074616617074838,0.0894941634241242,-0.0,-0.0
0.045423269271850586,-0.0024927568167640857,0.4061951628900573,0.1092088197146559,-0.0,-0.0
0.04792523384094238,-0.001725754719299033,0.4800488288700677,0.1289234760051876,-0.0,-0.0
0.050443172454833984,-0.0013422536705647303,0.10138094148165067,0.2996108949416332,-0.0,-0.0
0.05315876007080078,-0.000958752621832204,0.2853437094682221,0.21400778210116655,-0.0,-0.0
0.05621337890625,-0.0005752515730996777,0.07452506294346506,0.3328145265888445,-0.0,-0.0
0.058937788009643555,-0.00019175052436715134,0.1738918135347518,0.19273670557717182,-0.0,-0.0
0.06206321716308594,-0.00019175052436715134,0.06915388723582794,0.24513618677042714,-0.0,-0.0
0.06506824493408203,0.00019175052436715134,-0.014099336232547444,0.1579766536964975,-0.0,-0.0
0.06769704818725586,0.00019175052436715134,0.04901197833218873,0.21400778210116655,-0.0,-0.0
0.07054018974304199,0.00019175052436715134,-0.0785534447241929,0.10298313878080378,-0.0,-0.0
0.07309770584106445,0.00019175052436715134,0.09735255970092282,0.15278858625162073,-0.0,-0.0
0.07558059692382812,0.00019175052436715134,0.21283283741512093,0.184435797665369,-0.0,-0.0
0.07832694053649902,0.00019175052436715134,-0.03826962691691449,0.15849546044098517,-0.0,-0.0
0.08081483840942383,0.00019175052436715134,-0.12018005645838059,0.14760051880674396,-0.0,-0.0
0.08344531059265137,-0.00019175052436715134,-0.06646829938200938,0.11906614785992176,-0.0,-0.0
0.08606290817260742,-0.00019175052436715134,-0.2289463645380323,0.26485084306095885,-0.0,-0.0
0.08846044540405273,-0.00019175052436715134,-0.055725947966735134,0.04280155642023331,-0.0,-0.0
0.0910651683807373,0.00019175052436715134,-0.06781109330891866,0.10142671854734076,-0.0,-0.0
0.09358501434326172,0.00019175052436715134,0.010070954451819603,0.035019455252918164,-0.0,-0.0
0.09611845016479492,0.00019175052436715134,-0.024841687647821686,0.10194552529182843,-0.0,-0.0
0.0987703800201416,0.00019175052436715134,0.09063859006637642,0.07237354085603087,-0.0,-0.0
0.10123538970947266,0.00019175052436715134,0.012756542305638163,0.07237354085603087,-0.0,-0.0
0.10368633270263672,0.00019175052436715134,0.22357518883039518,-0.056809338521400576,-0.0,-0.0
0.10632658004760742,0.00019175052436715134,-0.028870069428549527,-0.07756160830090764,-0.0,-0.0
0.10906434059143066,0.00019175052436715134,-0.062439917601281536,0.0827496757457844,-0.0,-0.0
0.11168932914733887,-0.00019175052436715134,-0.13897917143511052,0.0007782101167315147,-0.0,-0.0
0.11431503295898438,-0.00019175052436715134,-0.1336079957274734,0.07963683527885834,-0.0,-0.0
0.11707925796508789,-0.00019175052436715134,0.13629358358129195,0.0739299610894939,-0.0,-0.0
0.11995935440063477,-0.00019175052436715134,-0.08795300221255786,0.08378728923475975,-0.0,-0.0
0.12295389175415039,0.00019175052436715134,0.054383154039825854,0.043839169909208664,-0.0,-0.0
0.12557744979858398,0.00019175052436715134,0.17792019531547965,-0.049546044098573105,-0.0,-0.0
0.12858819961547852,0.00019175052436715134,0.18329137102311677,-0.05058365758754846,-0.0,-0.0
0.1313626766204834,0.00019175052436715134,0.23700312809948798,0.012191958495460398,-0.0,-0.0
0.13428282737731934,0.00019175052436715134,0.17792019531547965,-0.009079118028534339,-0.0,-0.0
0.13721370697021484,-0.00019175052436715134,0.08929579613946714,0.031906614785992105,-0.0,-0.0
0.14008474349975586,-0.00019175052436715134,-0.04632639047837017,-0.015823605706874133,-0.0,-0.0
0.14246916770935059,-0.00019175052436715134,-0.07586785687037434,-0.05940337224383896,-0.0,-0.0
0.14517784118652344,-0.00019175052436715134,0.14300755321583836,0.06562905317769108,-0.0,-0.0
0.1477978229522705,-0.00019175052436715134,-0.07586785687037434,0.15382619974059608,-0.0,-0.0
0.1505272388458252,-0.0005752515730996777,-0.04766918440527945,0.018417639429312516,-0.0,-0.0
0.1534128189086914,-0.00019175052436715134,0.12823682001983627,0.1600518806744482,-0.0,-0.0
0.1559922695159912,-0.00019175052436715134,0.19671931029220957,-0.033463035019455134,-0.0,-0.0
0.15905332565307617,-0.0005752515730996777,-0.11480888075074347,-0.00025940337224383825,-0.0,-0.0
0.16172218322753906,-0.0005752515730996777,0.06915388723582794,0.07808041504539531,-0.0,-0.0
0.1647036075592041,-0.000958752621832204,0.053040360112916574,0.12010376134889711,-0.0,-0.0
0.16735076904296875,-0.000958752621832204,-0.14166475928892908,0.004928664072632927,-0.0,-0.0
0.17029333114624023,-0.0005752515730996777,-0.03692683299000521,0.04176394293125796,-0.0,-0.0
0.17300891876220703,-0.0005752515730996777,0.2155184252689395,-0.05058365758754846,-0.0,-0.0
0.17580795288085938,-0.000958752621832204,0.0020141908903639205,0.03709468223086887,-0.0,-0.0
0.17856764793395996,-0.000958752621832204,-0.12957961394674555,-0.00025940337224383825,-0.0,-0.0
0.1816084384918213,-0.000958752621832204,-0.12420843823910843,0.02360570687418928,-0.0,-0.0
0.18453240394592285,-0.000958752621832204,0.08661020828564858,-0.16731517509727567,-0.0,-0.0
0.18711137771606445,-0.0005752515730996777,0.04632639047837017,0.09779507133592702,-0.0,-0.0
0.1898488998413086,-0.0005752515730996777,0.10003814755474139,0.029312581063553722,-0.0,-0.0
0.19223403930664062,-0.0005752515730996777,0.09466697184710426,-0.08638132295719814,-0.0,-0.0
0.19501566886901855,-0.000958752621832204,-0.09466697184710426,0.0023346303501945442,-0.0,-0.0
0.1977708339691162,-0.000958752621832204,-0.055725947966735134,0.20726329442282676,-0.0,-0.0
0.20014023780822754,-0.000958752621832204,0.22088960097657662,0.06822308690012946,-0.0,-0.0
0.20285844802856445,-0.000958752621832204,0.21417563134203021,0.049546044098573105,-0.0,-0.0
0.2052750587463379,-0.000958752621832204,-0.0020141908903639205,0.05732814526588825,-0.0,-0.0
0.20786571502685547,-0.000958752621832204,-0.04901197833218873,0.06095979247730199,-0.0,-0.0
0.21085047721862793,-0.000958752621832204,-0.04095521477073305,0.0298313878080414,-0.0,-0.0
0.21339035034179688,-0.000958752621832204,-0.003356984817273201,0.07444876783398158,-0.0,-0.0
0.21630620956420898,-0.000958752621832204,0.0060425726710917615,0.02516212710765231,-0.0,-0.0
0.2188873291015625,-0.000958752621832204,-0.17523460746166108,0.14085603112840417,-0.0,-0.0
0.22145962715148926,-0.0005752515730996777,0.026184481574730967,0.17405966277561546,-0.0,-0.0
0.22452282905578613,-0.000958752621832204,0.0718394750896465,-0.004928664072632927,-0.0,-0.0
0.22742509841918945,-0.000958752621832204,0.20343327992675597,0.06095979247730199,-0.0,-0.0
0.23043394088745117,-0.000958752621832204,-0.11480888075074347,0.15953307392996052,-0.0,-0.0
0.23443317413330078,-0.000958752621832204,-0.08661020828564858,0.013748378728923427,-0.0,-0.0
0.2386152744293213,-0.000958752621832204,-0.09332417792019498,-0.07133592736705552,-0.0,-0.0
0.24158525466918945,-0.0005752515730996777,0.04229800869764233,0.03813229571984422,-0.0,-0.0
0.2452249526977539,-0.0005752515730996777,0.030212863355458808,0.0739299610894939,-0.0,-0.0
0.24959039688110352,-0.0005752515730996777,0.04901197833218873,-0.0038910505836575737,-0.0,-0.0
0.2533891201019287,-0.0005752515730996777,0.028870069428549527,0.11232166018158196,-0.0,-0.0
0.25644731521606445,-0.0005752515730996777,-0.04498359655146089,0.10765239948119287,-0.0,-0.0
0.2596888542175293,-0.0005752515730996777,0.057068741893644415,0.058365758754863606,-0.0,-0.0
0.2639579772949219,-0.00019175052436715134,-0.03558403906309593,0.12166018158236014,-0.0,-0.0
0.26897215843200684,-0.00019175052436715134,-0.05035477225909801,0.03242542153047978,-0.0,-0.0
0.2735018730163574,-0.00019175052436715134,0.08929579613946714,-0.05369649805447452,-0.0,-0.0
0.27727770805358887,-0.00019175052436715134,-0.015442130159456724,0.01322957198443575,-0.0,-0.0
0.28154516220092773,-0.00019175052436715134,-0.11078049897001563,-0.07808041504539531,-0.0,-0.0
0.28451991081237793,-0.00019175052436715134,-0.09466697184710426,0.04591439688715937,-0.0,-0.0
0.2878599166870117,-0.00019175052436715134,0.03155565728236809,0.12736705577172458,-0.0,-0.0
0.2925832271575928,-0.00019175052436715134,0.22357518883039518,-0.04176394293125796,-0.0,-0.0
0.2966916561126709,-0.00019175052436715134,-0.058411535820553695,0.010635538261997368,-0.0,-0.0
0.3000338077545166,-0.00019175052436715134,0.1886625467307539,0.05784695201037593,-0.0,-0.0
0.30445241928100586,-0.00019175052436715134,-0.023498893720912406,0.011673151750972721,-0.0,-0.0
0.30773329734802246,-0.00019175052436715134,0.19806210421911885,-0.06977950713359249,-0.0,-0.0
0.312441349029541,-0.00019175052436715134,0.04229800869764233,0.05369649805447452,-0.0,-0.0
0.3167543411254883,-0.00019175052436715134,0.20477607385366525,-0.035019455252918164,-0.0,-0.0
0.3199601173400879,-0.0005752515730996777,-0.020813305867093845,0.01945525291828787,-0.0,-0.0
0.32368922233581543,-0.0005752515730996777,-0.2853437094682221,-0.03553826199740584,-0.0,-0.0
0.3284635543823242,-0.0005752515730996777,-0.24371709773403438,-0.10453955901426681,-0.0,-0.0
0.33254575729370117,-0.0005752515730996777,0.13629358358129195,0.015304798962386457,-0.0,-0.0
0.33570027351379395,-0.0005752515730996777,-0.008728160524910322,-0.013748378728923427,-0.0,-0.0
0.33901238441467285,-0.0005752515730996777,-0.015442130159456724,0.04176394293125796,-0.0,-0.0
0.3425467014312744,-0.0005752515730996777,0.04632639047837017,-0.09727626459143934,-0.0,-0.0
0.34734487533569336,-0.0005752515730996777,0.16449225604638684,-0.07963683527885834,-0.0,-0.0
0.35158491134643555,-0.0005752515730996777,0.0006713969634546402,0.06407263294422805,-0.0,-0.0
0.3559548854827881,-0.0005752515730996777,-0.17792019531547965,0.01322957198443575,-0.0,-0.0
0.36044812202453613,-0.000958752621832204,-0.07989623865110218,-0.018936446173800192,-0.0,-0.0
0.3641014099121094,-0.0005752515730996777,0.08123903257801146,0.07029831387808017,-0.0,-0.0
0.36824655532836914,-0.000958752621832204,-0.12420843823910843,0.06822308690012946,-0.0,-0.0
0.3714892864227295,-0.000958752621832204,-0.14166475928892908,-0.01945525291828787,-0.0,-0.0
0.37420225143432617,-0.0005752515730996777,0.061097123674372256,-0.023086900129701604,-0.0,-0.0
0.37899327278137207,-0.0005752515730996777,0.10003814755474139,-0.03294422827496746,-0.0,-0.0
0.38350987434387207,-0.0005752515730996777,0.015442130159456724,0.04695201037613472,-0.0,-0.0
0.3883328437805176,-0.0005752515730996777,0.06781109330891866,0.047989623865110076,-0.0,-0.0
0.3928060531616211,-0.0005752515730996777,-0.13092240787365483,0.05577172503242522,-0.0,-0.0
0.3970792293548584,-0.0005752515730996777,0.10809491111619707,0.012191958495460398,-0.0,-0.0
0.4018552303314209,-0.0005752515730996777,0.019470511940184565,0.012710765239948074,-0.0,-0.0
0.4054877758026123,-0.0005752515730996777,-0.04095521477073305,0.05006485084306078,-0.0,-0.0
0.40976786613464355,-0.0005752515730996777,0.015442130159456724,-0.11387808041504499,-0.0,-0.0
0.4146411418914795,-0.00019175052436715134,0.055725947966735134,-0.054215304798962194,-0.0,-0.0
0.41907215118408203,-0.0005752515730996777,-0.23431754024566942,-0.10609597924772984,-0.0,-0.0
0.42400312423706055,-0.0005752515730996777,0.003356984817273201,0.06770428015564178,-0.0,-0.0
0.42830681800842285,-0.00019175052436715134,0.10272373540855995,-0.01634241245136181,-0.0,-0.0
0.4330117702484131,-0.00019175052436715134,0.17523460746166108,-0.04591439688715937,-0.0,-0.0
0.4377017021179199,-0.00019175052436715134,-0.053040360112916574,0.03968871595330725,-0.0,-0.0
0.44217586517333984,-0.00019175052436715134,-0.2356603341725787,0.07029831387808017,-0.0,-0.0
0.44649815559387207,-0.00019175052436715134,0.03826962691691449,-0.0630350194552527,-0.0,-0.0
0.4506840705871582,-0.00019175052436715134,0.10406652933546923,-0.12166018158236014,-0.0,-0.0
0.45362424850463867,-0.00019175052436715134,0.09735255970092282,0.0033722438391698972,-0.0,-0.0
0.4564332962036133,-0.00019175052436715134,0.057068741893644415,-0.01789883268482484,-0.0,-0.0
0.45916128158569336,-0.00019175052436715134,-0.020813305867093845,0.028793774319066046,-0.0,-0.0
0.4616124629974365,-0.00019175052436715134,0.027527275501640247,-0.2238651102464324,-0.0,-0.0
0.464646577835083,-0.00019175052436715134,0.11883726253147131,0.1268482490272369,-0.0,-0.0
0.46779370307922363,-0.00019175052436715134,-0.012756542305638163,-0.04591439688715937,-0.0,-0.0
0.4711427688598633,-0.00019175052436715134,-0.12018005645838059,-0.042282749675745634,-0.0,-0.0
0.47377490997314453,-0.00019175052436715134,0.027527275501640247,0.09623865110246399,-0.0,-0.0
0.478334903717041,-0.00019175052436715134,-0.13495078965438267,-0.09779507133592702,-0.0,-0.0
0.4825098514556885,-0.00019175052436715134,-0.16986343175402396,-0.007003891050583633,-0.0,-0.0
0.4864070415496826,-0.00019175052436715134,0.007385366598001042,-0.0983138780804147,-0.0,-0.0
0.49089860916137695,-0.00019175052436715134,0.1806057831692982,-0.07808041504539531,-0.0,-0.0
0.4940204620361328,-0.00019175052436715134,-0.2692301823453107,0.0630350194552527,-0.0,-0.0
0.49757814407348633,-0.00019175052436715134,-0.016784924086366004,0.06407263294422805,-0.0,-0.0
0.5023927688598633,-0.00019175052436715134,0.03558403906309593,0.016861219195849486,-0.0,-0.0
0.5060160160064697,-0.00019175052436715134,0.11078049897001563,-0.015823605706874133,-0.0,-0.0
0.5088808536529541,-0.00019175052436715134,-0.04766918440527945,-0.06874189364461714,-0.0,-0.0
0.5118284225463867,-0.00019175052436715134,-0.055725947966735134,0.02360570687418928,-0.0,-0.0
0.5148656368255615,-0.00019175052436715134,0.0060425726710917615,-0.09727626459143934,-0.0,-0.0
0.5174081325531006,-0.00019175052436715134,-0.13495078965438267,0.04435797665369634,-0.0,-0.0
0.5203711986541748,-0.00019175052436715134,-0.05035477225909801,0.02516212710765231,-0.0,-0.0
0.523085355758667,-0.00019175052436715134,-0.022156099794003126,0.027756160830090693,-0.0,-0.0
0.526120662689209,-0.00019175052436715134,0.03826962691691449,-0.06459143968871572,-0.0,-0.0
0.5300421714782715,-0.00019175052436715134,0.1470359349965662,-0.0012970168612191912,-0.0,-0.0
0.534797191619873,-0.00019175052436715134,-0.04766918440527945,0.09468223086900096,-0.0,-0.0
0.5384836196899414,-0.00019175052436715134,0.06915388723582794,0.03709468223086887,-0.0,-0.0
0.5417947769165039,-0.0005752515730996777,-0.13897917143511052,0.024124513618676957,-0.0,-0.0
0.5454468727111816,-0.00019175052436715134,0.14435034714274764,-0.008041504539558986,-0.0,-0.0
0.5502018928527832,-0.00019175052436715134,-0.0651255054551001,-0.11439688715953267,-0.0,-0.0
0.5542187690734863,-0.00019175052436715134,0.1738918135347518,0.07548638132295693,-0.0,-0.0
0.5574657917022705,-0.00019175052436715134,0.2840009155413128,0.039169909208819575,-0.0,-0.0
0.5605337619781494,-0.00019175052436715134,-0.03826962691691449,-0.058365758754863606,-0.0,-0.0
0.5637691020965576,-0.00019175052436715134,0.1403219653620198,-0.07133592736705552,-0.0,-0.0
0.566704273223877,-0.00019175052436715134,0.11346608682383419,0.1356679636835274,-0.0,-0.0
0.5696275234222412,-0.00019175052436715134,-0.010070954451819603,-0.17717250324254152,-0.0,-0.0
0.5725619792938232,-0.00019175052436715134,-0.194033722438391,0.0033722438391698972,-0.0,-0.0
0.5754032135009766,-0.00019175052436715134,-0.09063859006637642,-0.058365758754863606,-0.0,-0.0
0.5782084465026855,-0.00019175052436715134,-0.23028915846494158,0.10298313878080378,-0.0,-0.0
0.5806863307952881,-0.00019175052436715134,0.10943770504310635,0.03968871595330725,-0.0,-0.0
0.5834159851074219,-0.00019175052436715134,0.057068741893644415,0.0827496757457844,-0.0,-0.0
0.5863423347473145,-0.00019175052436715134,-0.13897917143511052,-0.046433203631647046,-0.0,-0.0
0.5888795852661133,-0.00019175052436715134,0.04766918440527945,-0.03398184176394281,-0.0,-0.0
0.5915915966033936,-0.00019175052436715134,-0.012756542305638163,-0.12425421530479852,-0.0,-0.0
0.5955288410186768,-0.00019175052436715134,0.07452506294346506,0.01322957198443575,-0.0,-0.0
0.5987040996551514,-0.00019175052436715134,-0.10809491111619707,-0.07808041504539531,-0.0,-0.0
0.6013524532318115,-0.00019175052436715134,-0.08258182650492074,-0.06614785992217875,-0.0,-0.0
0.6042983531951904,-0.00019175052436715134,-0.026184481574730967,-0.0033722438391698972,-0.0,-0.0
0.6069939136505127,0.00019175052436715134,-0.055725947966735134,0.0474708171206224,-0.0,-0.0
0.6102511882781982,-0.00019175052436715134,-0.3108567940794984,0.0033722438391698972,-0.0,-0.0
0.6151189804077148,-0.00019175052436715134,0.022156099794003126,0.005447470817120603,-0.0,-0.0
0.6193642616271973,0.00019175052436715134,0.24640268558785294,-0.011673151750972721,-0.0,-0.0
0.6228499412536621,0.00019175052436715134,-0.07721065079728362,0.0033722438391698972,-0.0,-0.0
0.6263935565948486,0.00019175052436715134,-0.09466697184710426,0.07237354085603087,-0.0,-0.0
0.6310720443725586,0.00019175052436715134,-0.04766918440527945,-0.06562905317769108,-0.0,-0.0
0.6355931758880615,0.00019175052436715134,0.2423743038071251,-0.08586251621271046,-0.0,-0.0
0.639047384262085,0.00019175052436715134,0.04901197833218873,0.012191958495460398,-0.0,-0.0
0.6422419548034668,0.00019175052436715134,-0.15509269855802188,-0.12996108949416296,-0.0,-0.0
0.646514892578125,0.00019175052436715134,0.004699778744182481,-0.06874189364461714,-0.0,-0.0
0.6514296531677246,0.00019175052436715134,0.1819485770962075,-0.054215304798962194,-0.0,-0.0
0.6551358699798584,0.00019175052436715134,-0.03692683299000521,-0.011673151750972721,-0.0,-0.0
0.6580169200897217,0.00019175052436715134,-0.04766918440527945,-0.09779507133592702,-0.0,-0.0
0.6607868671417236,0.00019175052436715134,-0.15106431677729404,0.016861219195849486,-0.0,-0.0
0.664177656173706,0.00019175052436715134,0.12286564431219915,-0.052658884565499164,-0.0,-0.0
0.668663740158081,0.00019175052436715134,0.012756542305638163,-0.08638132295719814,-0.0,-0.0
0.6724231243133545,0.00019175052436715134,0.17792019531547965,0.012710765239948074,-0.0,-0.0
0.6767117977142334,0.00019175052436715134,-0.026184481574730967,-0.016861219195849486,-0.0,-0.0
0.6813030242919922,0.00019175052436715134,0.011413748378728883,-0.02360570687418928,-0.0,-0.0
0.685521125793457,0.00019175052436715134,-0.06378271152819082,-0.024643320363164634,-0.0,-0.0
0.6888296604156494,0.00019175052436715134,-0.0852674143587393,-0.15693904020752214,-0.0,-0.0
0.6917734146118164,0.00019175052436715134,-0.36188296330205105,-0.05162127107652381,-0.0,-0.0
0.6956276893615723,0.0005752515730996777,0.24774547951476222,-0.10972762645914358,-0.0,-0.0
0.6996912956237793,0.00019175052436715134,0.0651255054551001,-0.11076523994811893,-0.0,-0.0
0.7032945156097412,0.00019175052436715134,0.019470511940184565,-0.011673151750972721,-0.0,-0.0
